ECG_Raw,ECG_Clean,ECG_Rate,ECG_Quality,ECG_R_Peaks,ECG_P_Peaks,ECG_P_Onsets,ECG_P_Offsets,ECG_Q_Peaks,ECG_R_Onsets,ECG_R_Offsets,ECG_S_Peaks,ECG_T_Peaks,ECG_T_Onsets,ECG_T_Offsets,ECG_Phase_Atrial,ECG_Phase_Completion_Atrial,ECG_Phase_Ventricular,ECG_Phase_Completion_Ventricular,RSP_Raw,RSP_Clean,RSP_Amplitude,RSP_Rate,RSP_RVT,RSP_Phase,RSP_Phase_Completion,RSP_Symmetry_PeakTrough,RSP_Symmetry_RiseDecay,RSP_Peaks,RSP_Troughs,EDA_Raw,EDA_Clean,EDA_Tonic,EDA_Phasic,SCR_Onsets,SCR_Peaks,SCR_Height,SCR_Amplitude,SCR_RiseTime,SCR_Recovery,SCR_RecoveryTime,RSA_P2T,RSA_Gates
-0.015869140625,0.0014784763606915316,61.270034489754515,0.952198713857193,0,0,0,0,0,0,0,0,0,0,0,,0.0,,0.0,0.7789306640625,-0.12434894089533209,0.7232789512989551,16.9589795622554,0.13739929924276373,,0.0,0.5612244897959183,0.3781094527363184,0,0,13.196867709029974,13.196849472199169,13.101234169416879,0.09561530285944281,0,0,0.0,0.0,0.0,0,0.0,140.0,8.473583166298873
-0.0117034912109375,0.004598609325948893,61.270034489754515,0.952198713857193,0,0,0,0,0,0,0,0,0,0,0,,0.0,,0.0,0.777587890625,-0.12520723973196024,0.7232789512989551,16.9589795622554,0.1374218463752645,,0.0,0.5612244897959183,0.3781094527363184,0,0,13.197172884811224,13.195557319241669,13.100983757284917,0.09457356203368164,0,0,0.0,0.0,0.0,0,0.0,140.0,8.473583166298873
-0.009765625,0.0052351277420140336,61.270034489754515,0.952198713857193,0,0,0,0,0,0,0,0,0,0,0,,0.0,,0.0,0.777435302734375,-0.1260658805578447,0.7232789512989551,16.9589795622554,0.13744891219275182,,0.0,0.5612244897959183,0.3781094527363184,0,0,13.1970202969206,13.194280304909535,13.10073327806421,0.09354702692203144,0,0,0.0,0.0,0.0,0,0.0,140.0,8.473583166298873
-0.0133209228515625,0.004396440243659869,61.270034489754515,0.952198713857193,0,0,0,0,0,0,0,0,0,0,0,,0.0,,0.0,0.777557373046875,-0.12691979819483348,0.7232789512989551,16.9589795622554,0.1374804920176648,,0.0,0.5612244897959183,0.3781094527363184,0,0,13.1976306484831,13.193031619314192,13.100482733927981,0.09254888546269611,0,0,0.0,0.0,0.0,0,0.0,140.0,8.473583166298873
-0.00958251953125,0.0056418657609686,61.270034489754515,0.952198713857193,0,0,0,0,0,0,0,0,0,0,0,,0.0,,0.0,0.775299072265625,-0.12776437909260918,0.7232789512989551,16.9589795622554,0.13751658041644982,,0.0,0.5612244897959183,0.3781094527363184,0,0,13.196715121139349,13.191823904565346,13.100232127058572,0.09159177758303733,0,0,0.0,0.0,0.0,0,0.0,140.0,8.473583166298873
-0.006622314453125,0.007655536133971467,61.270034489754515,0.952198713857193,0,0,0,0,0,0,0,0,0,0,0,,0.0,,0.0,0.774932861328125,-0.12859553630751677,0.7232789512989551,16.9589795622554,0.13755717120029592,,0.0,0.5612244897959183,0.3781094527363184,0,0,13.186796908248724,13.190668980973646,13.099981459647339,0.09068752140235481,0,0,0.0,0.0,0.0,0,0.0,140.0,8.473583166298873
-0.00634765625,0.007969540457925844,61.270034489754515,0.952198713857193,0,0,0,0,0,0,0,0,0,0,0,,0.0,,0.0,0.77484130859375,-0.1294101036036267,0.7232789512989551,16.9589795622554,0.13760225742604945,,0.0,0.5612244897959183,0.3781094527363184,0,0,13.185576205123724,13.18957758538126,13.09973073389456,0.0898468515625305,0,0,0.0,0.0,0.0,0,0.0,140.0,8.473583166298873
-0.006744384765625,0.00850286533130689,61.270034489754515,0.952198713857193,0,0,0,0,0,0,0,0,0,0,0,,0.0,,0.0,0.775146484375,-0.13020597399618722,0.7232789512989551,16.9589795622554,0.1376518313973091,,0.0,0.5612244897959183,0.3781094527363184,0,0,13.1848132656706,13.188559133248106,13.099479952009354,0.0890791813143664,0,0,0.0,0.0,0.0,0,0.0,140.0,8.473583166298873
-0.00225830078125,0.009465508448170932,61.270034489754515,0.952198713857193,0,0,0,0,0,0,0,0,0,0,0,,0.0,,0.0,0.774932861328125,-0.13098166503225694,0.7232789512989551,16.9589795622554,0.13770588466570027,,0.0,0.5612244897959183,0.3781094527363184,0,0,13.184965853561224,13.187621518213097,13.09922911620959,0.08839240207890597,0,0,0.0,0.0,0.0,0,0.0,140.0,8.473583166298873
-0.0051727294921875,0.00895793521287058,61.270034489754515,0.952198713857193,0,0,0,0,0,0,0,0,0,0,0,,0.0,,0.0,0.772735595703125,-0.13173580647743383,0.7232789512989551,16.9589795622554,0.13776440803232903,,0.0,0.5612244897959183,0.3781094527363184,0,0,13.1848132656706,13.18677096159394,13.098978228721823,0.08779273294729859,0,0,0.0,0.0,0.0,0,0.0,140.0,8.473583166298873
-0.0040740966796875,0.008880044637127136,61.270034489754515,0.952198713857193,0,0,0,0,0,0,0,0,0,0,0,,0.0,,0.0,0.772613525390625,-0.13246718218937736,0.7232789512989551,16.9589795622554,0.13782739154941592,,0.0,0.5612244897959183,0.3781094527363184,0,0,13.184050326217474,13.186011920322535,13.09872729178122,0.08728462861627864,0,0,0.0,0.0,0.0,0,0.0,140.0,8.473583166298873
-0.0019073486328125,0.010899034168131424,61.270034489754515,0.952198713857193,0,0,0,0,0,0,0,0,0,0,0,,0.0,,0.0,0.772491455078125,-0.13317519106015652,0.7232789512989551,16.9589795622554,0.13789482452210877,,0.0,0.5612244897959183,0.3781094527363184,0,0,13.182677035201849,13.185347056885993,13.098476307631508,0.08687074932923122,0,0,0.0,0.0,0.0,0,0.0,140.0,8.473583166298873
0.002471923828125,0.013466306270165786,61.270034489754515,0.952198713857193,0,0,0,0,0,0,0,0,0,0,0,,0.0,,0.0,0.7724609375,-0.13386002802731062,0.7232789512989551,16.9589795622554,0.13796669551047458,,0.0,0.5612244897959183,0.3781094527363184,0,0,13.185118441451849,13.18477727025737,13.098225278524918,0.08655199180698447,0,0,0.0,0.0,0.0,0,0.0,140.0,8.473583166298873
0.0035247802734375,0.015502465832232817,61.270034489754515,0.952198713857193,0,0,0,0,0,0,0,0,0,0,0,,0.0,,0.0,0.772552490234375,-0.1345223826653424,0.7232789512989551,16.9589795622554,0.13804299233167028,,0.0,0.5612244897959183,0.3781094527363184,0,0,13.185271029342474,13.184301782927852,13.097974206722148,0.08632757628002306,0,0,0.0,0.0,0.0,0,0.0,140.0,8.473583166298873
0.006866455078125,0.01751502632182522,61.270034489754515,0.952198713857193,0,0,0,0,0,0,0,0,0,0,0,,0.0,,0.0,0.7728271484375,-0.1351629178866466,0.7232789512989551,16.9589795622554,0.13812370206229171,,0.0,0.5612244897959183,0.3781094527363184,0,0,13.183897738326849,13.18391827604428,13.097723094492329,0.08619518162605752,0,0,0.0,0.0,0.0,0,0.0,140.0,8.473583166298873
0.0088348388671875,0.020282339089338238,61.270034489754515,0.952198713857193,0,0,0,0,0,0,0,0,0,0,0,,0.0,,0.0,0.772613525390625,-0.13578167520896783,0.7232789512989551,16.9589795622554,0.13820881104090046,,0.0,0.5612244897959183,0.3781094527363184,0,0,13.183287386764349,13.183623062547026,13.097471944113009,0.08615111850791202,0,0,0.0,0.0,0.0,0,0.0,140.0,8.473583166298873
0.014251708984375,0.022858506565508488,61.270034489754515,0.952198713857193,0,0,0,0,0,0,0,0,0,0,0,,0.0,,0.0,0.772491455078125,-0.13637752141673756,0.7232789512989551,16.9589795622554,0.1382983048707282,,0.0,0.5612244897959183,0.3781094527363184,0,0,13.184355501998724,13.183411287266601,13.097220757870137,0.08619052947014827,0,0,0.0,0.0,0.0,0,0.0,140.0,8.473583166298873
0.0133514404296875,0.02473631548487918,61.270034489754515,0.952198713857193,0,0,0,0,0,0,0,0,0,0,0,,0.0,,0.0,0.770263671875,-0.13694790918610358,0.7232789512989551,16.9589795622554,0.138392168422558,,0.0,0.5612244897959183,0.3781094527363184,0,0,13.183897738326849,13.183277142887405,13.096969538058056,0.08630760490282305,0,0,0.0,0.0,0.0,0,0.0,140.0,8.473583166298873
0.0188140869140625,0.026034156932345332,61.270034489754515,0.952198713857193,0,0,0,0,0,0,0,0,0,0,0,,0.0,,0.0,0.770263671875,-0.1374892224381525,0.7232789512989551,16.9589795622554,0.13849038583778184,,0.0,0.5612244897959183,0.3781094527363184,0,0,13.184050326217474,13.183214091021874,13.09671828697951,0.08649580411563064,0,0,0.0,0.0,0.0,0,0.0,140.0,8.473583166298873
0.0155181884765625,0.02577559776372923,61.270034489754515,0.952198713857193,0,0,0,0,0,0,0,0,0,0,0,,0.0,,0.0,0.770172119140625,-0.13799744884289125,0.7232789512989551,16.9589795622554,0.1385929405316337,,0.0,0.5612244897959183,0.3781094527363184,0,0,13.184050326217474,13.183215078150297,13.09646700694565,0.08674807127770391,0,0,0.0,0.0,0.0,0,0.0,140.0,8.473583166298873
0.017120361328125,0.024986914679842306,61.270034489754515,0.952198713857193,0,0,0,0,0,0,0,0,0,0,0,,0.0,,0.0,0.770416259765625,-0.13846851459529064,0.7232789512989551,16.9589795622554,0.13869981519659788,,0.0,0.5612244897959183,0.3781094527363184,0,0,13.1854236172331,13.183272736958214,13.096215700276062,0.08705703675500245,0,0,0.0,0.0,0.0,0,0.0,140.0,8.473583166298873
0.015533447265625,0.023523266003010766,61.270034489754515,0.952198713857193,0,0,0,0,0,0,0,0,0,0,0,,0.0,,0.0,0.769989013671875,-0.13889814180341836,0.7232789512989551,16.9589795622554,0.13881099180599105,,0.0,0.5612244897959183,0.3781094527363184,0,0,13.186339144576849,13.183379564738665,13.095964369298777,0.08741519551253049,0,0,0.0,0.0,0.0,0,0.0,140.0,8.473583166298873
0.0126953125,0.021144436214797523,61.270034489754515,0.952198713857193,0,0,0,0,0,0,0,0,0,0,0,,0.0,,0.0,0.770050048828125,-0.13928162544779316,0.7232789512989551,16.9589795622554,0.138926451617718,,0.0,0.5612244897959183,0.3781094527363184,0,0,13.184660677779974,13.183528072112926,13.095713016350313,0.0878150558350475,0,0,0.0,0.0,0.0,0,0.0,140.0,8.473583166298873
0.0118560791015625,0.02046741155582981,61.270034489754515,0.952198713857193,0,0,0,0,0,0,0,0,0,0,0,,0.0,,0.0,0.77001953125,-0.1396137292435015,0.7232789512989551,16.9589795622554,0.13904617517819984,,0.0,0.5612244897959183,0.3781094527363184,0,0,13.184355501998724,13.18371089750936,13.09546164377571,0.08824925380587671,0,0,0.0,0.0,0.0,0,0.0,140.0,8.473583166298873
0.015045166015625,0.020054148504255975,61.270034489754515,0.952198713857193,0,0,0,0,0,0,0,0,0,0,0,,0.0,,0.0,0.77032470703125,-0.1398885970351394,0.7232789512989551,16.9589795622554,0.13917014232647362,,0.0,0.5612244897959183,0.3781094527363184,0,0,13.184660677779974,13.183920885581307,13.09521025392856,0.08871063172477094,0,0,0.0,0.0,0.0,0,0.0,140.0,8.473583166298873
0.0092010498046875,0.017703657447390556,61.270034489754515,0.952198713857193,0,0,0,0,0,0,0,0,0,0,0,,0.0,,0.0,0.77020263671875,-0.14009960426950363,0.7232789512989551,16.9589795622554,0.13929833219846263,,0.0,0.5612244897959183,0.3781094527363184,0,0,13.185118441451849,13.184151130592475,13.094958849171048,0.08919228149324945,0,0,0.0,0.0,0.0,0,0.0,140.0,8.473583166298873
0.009613037109375,0.016196936702892507,61.270034489754515,0.952198713857193,0,0,0,0,0,0,0,0,0,0,0,,0.0,,0.0,0.7701416015625,-0.1402392435184217,0.7232789512989551,16.9589795622554,0.13943072323141603,,0.0,0.5612244897959183,0.3781094527363184,0,0,13.184508089889349,13.18439498820441,13.094707431874003,0.08968755640202634,0,0,0.0,0.0,0.0,0,0.0,140.0,8.473583166298873
0.0098876953125,0.017357488823153352,61.270034489754515,0.952198713857193,0,1,0,0,0,0,0,0,0,0,0,1.0,0.0,,0.0,0.77008056640625,-0.14029916844468837,0.7232789512989551,16.9589795622554,0.13956729316851735,,0.0,0.5612244897959183,0.3781094527363184,0,0,13.185118441451849,13.184646060881397,13.094456004416944,0.09019005653587026,0,0,0.0,0.0,0.0,0,0.0,140.0,8.473583166298873
0.0148162841796875,0.01830147313804497,61.270034489754515,0.952198713857193,0,0,0,0,0,0,0,0,0,0,0,1.0,0.047619047619047616,,0.0,0.770294189453125,-0.14027038000674194,0.7232789512989551,16.9589795622554,0.13970801906365982,,0.0,0.5612244897959183,0.3781094527363184,0,0,13.184660677779974,13.184898163443354,13.09420456918813,0.0906935943264399,0,0,0.0,0.0,0.0,0,0.0,140.0,8.473583166298873
0.009674072265625,0.015931419096633478,61.270034489754515,0.952198713857193,0,0,0,1,0,0,0,0,0,0,0,1.0,0.09523809523809523,,0.0,0.77001953125,-0.14014347779568556,0.7232789512989551,16.9589795622554,0.13985287728638804,,0.0,0.5612244897959183,0.3781094527363184,0,0,13.1842029141081,13.185145276291303,13.093953128584603,0.09119214777772103,0,0,0.0,0.0,0.0,0,0.0,140.0,8.473583166298873
0.0067291259765625,0.01347843204853185,61.270034489754515,0.952198713857193,0,0,0,0,0,0,0,0,0,0,0,1.0,0.14285714285714285,,0.0,0.770111083984375,-0.13990900928782748,0.7232789512989551,16.9589795622554,0.14000184352700454,,0.0,0.5612244897959183,0.3781094527363184,0,0,13.184050326217474,13.185381494467647,13.093701685012238,0.09167980952623353,0,0,0.0,0.0,0.0,0,0.0,140.0,8.473583166298873
0.00909423828125,0.015791042099692416,61.270034489754515,0.952198713857193,0,0,0,0,0,0,0,0,0,0,0,1.0,0.19047619047619047,,0.0,0.7706298828125,-0.13955793176790401,0.7232789512989551,16.9589795622554,0.14015489280183957,,0.0,0.5612244897959183,0.3781094527363184,0,0,13.183897738326849,13.185600980847411,13.093450240885792,0.09215074003224655,0,0,0.0,0.0,0.0,0,0.0,140.0,8.473583166298873
0.017669677734375,0.02045458886492825,61.270034489754515,0.952198713857193,0,0,0,0,0,0,0,0,0,0,0,1.0,0.23809523809523808,,0.0,0.772430419921875,-0.13908193953515505,0.7232789512989551,16.9589795622554,0.14031199945868345,,0.0,0.5612244897959183,0.3781094527363184,0,0,13.185576205123724,13.185797931231225,13.093198798628954,0.09259913267269973,0,0,0.0,0.0,0.0,0,0.0,140.0,8.473583166298873
0.01788330078125,0.023551414333971357,61.270034489754515,0.952198713857193,0,0,0,0,0,0,0,0,0,0,0,1.0,0.2857142857142857,,0.0,0.77288818359375,-0.1384733815891484,0.7232789512989551,16.9589795622554,0.14047313718237917,,0.0,0.5612244897959183,0.3781094527363184,0,0,13.185271029342474,13.18596655790672,13.092947360674389,0.09301919730256636,0,0,0.0,0.0,0.0,0,0.0,140.0,8.473583166298873
0.022308349609375,0.027831944417472592,61.270034489754515,0.952198713857193,0,0,0,0,0,0,0,0,0,0,0,1.0,0.3333333333333333,,0.0,0.773529052734375,-0.13772498491202717,0.7232789512989551,16.9589795622554,0.1406382790005749,,0.0,0.5612244897959183,0.3781094527363184,0,0,13.185118441451849,13.186101096607695,13.092695929463774,0.09340516721395928,0,0,0.0,0.0,0.0,0,0.0,140.0,8.473583166298873
0.0313720703125,0.03385314721003906,61.270034489754515,0.952198713857193,0,0,0,0,0,0,0,0,0,0,0,1.0,0.38095238095238093,,0.0,0.774932861328125,-0.1368298100322678,0.7232789512989551,16.9589795622554,0.14080739728963387,,0.0,0.5612244897959183,0.3781094527363184,0,0,13.185881380904974,13.186195840132282,13.092444507447853,0.09375133275427282,0,0,0.0,0.0,0.0,0,0.0,140.0,8.473583166298873
0.03387451171875,0.03208210966950158,61.270034489754515,0.952198713857193,0,0,0,0,0,0,0,0,0,0,0,1.0,0.42857142857142855,,0.0,0.775726318359375,-0.13578141353998222,0.7232789512989551,16.9589795622554,0.14098046378070034,,0.0,0.5612244897959183,0.3781094527363184,0,0,13.184660677779974,13.1862452004374,13.092193097086462,0.09405210342058931,0,0,0.0,0.0,0.0,0,0.0,140.0,8.473583166298873
0.0136566162109375,0.019081798142061124,61.270034489754515,0.952198713857193,0,0,0,0,0,0,0,0,0,0,0,1.0,0.47619047619047616,,0.0,0.77734375,-0.13457400903909592,0.7232789512989551,16.9589795622554,0.14115744956592052,,0.0,0.5612244897959183,0.3781094527363184,0,0,13.184660677779974,13.186243799761444,13.091941700848565,0.09430209898233231,0,0,0.0,0.0,0.0,0,0.0,140.0,8.473583166298873
0.00048828125,0.004991679735216429,61.270034489754515,0.952198713857193,0,0,0,0,0,0,0,0,0,0,0,1.0,0.5238095238095237,,0.0,0.779449462890625,-0.1332025586155638,0.7232789512989551,16.9589795622554,0.1413383251048162,,0.0,0.5612244897959183,0.3781094527363184,0,0,13.184050326217474,13.186186590015971,13.091690321212294,0.09449626887293436,0,0,0.0,0.0,0.0,0,0.0,140.0,8.473583166298873
-0.008453369140625,-0.0030318784694033153,61.270034489754515,0.952198713857193,0,0,0,0,0,0,0,0,0,0,0,1.0,0.5714285714285714,,0.0,0.780548095703125,-0.13166273770730666,0.7232789512989551,16.9589795622554,0.14152306023080943,,0.0,0.5612244897959183,0.3781094527363184,0,0,13.185118441451849,13.186068998086418,13.09143896066496,0.09463003749051904,0,0,0.0,0.0,0.0,0,0.0,140.0,8.473583166298873
-0.0086669921875,-0.006598690420016937,61.270034489754515,0.952198713857193,0,0,0,0,0,0,0,0,0,0,0,1.0,0.6190476190476191,,0.0,0.78271484375,-0.12995089563641582,0.7232789512989551,16.9589795622554,0.14171162415789687,,0.0,0.5612244897959183,0.3781094527363184,0,0,13.184965853561224,13.185887092649438,13.091187621703073,0.09469947101523277,0,0,0.0,0.0,0.0,0,0.0,140.0,8.473583166298873
-0.0127716064453125,-0.009805759337053493,61.270034489754515,0.952198713857193,0,0,0,0,0,0,0,0,0,0,0,1.0,0.6666666666666666,,0.0,0.78485107421875,-0.12806414233256455,0.7232789512989551,16.9589795622554,0.1419039854874717,,0.0,0.5612244897959183,0.3781094527363184,0,0,13.186186556686224,13.185637765755814,13.09093630683236,0.09470145899212802,0,0,0.0,0.0,0.0,0,0.0,140.0,8.473583166298873
-0.01641845703125,-0.013248202940092137,61.270034489754515,0.952198713857193,0,0,0,0,0,0,0,0,0,0,0,1.0,0.7142857142857142,,0.0,0.7874755859375,-0.1260003968452691,0.7232789512989551,16.9589795622554,0.14210011221529112,,0.0,0.5612244897959183,0.3781094527363184,0,0,13.185118441451849,13.185318920127202,13.090685018567768,0.0946339016279152,0,0,0.0,0.0,0.0,0,0.0,140.0,8.473583166298873
-0.01806640625,-0.013420345903632617,61.270034489754515,0.952198713857193,0,0,0,0,0,1,0,0,0,0,0,1.0,0.7619047619047619,,0.0,0.789794921875,-0.12375828937503268,0.7232789512989551,16.9589795622554,0.14229997173858758,,0.0,0.5612244897959183,0.3781094527363184,0,0,13.185576205123724,13.184929651325708,13.090433759433468,0.09449589196053222,0,0,0.0,0.0,0.0,0,0.0,140.0,8.473583166298873
-0.0111236572265625,-0.018455160694164485,61.270034489754515,0.952198713857193,0,0,0,0,0,0,0,0,0,0,0,1.0,0.8095238095238095,,0.0,0.79241943359375,-0.12133705167463475,0.7232789512989551,16.9589795622554,0.1425035308633223,,0.0,0.5612244897959183,0.3781094527363184,0,0,13.185118441451849,13.184470412929981,13.090182531962842,0.09428788103523775,0,0,0.0,0.0,0.0,0,0.0,140.0,8.473583166298873
-0.0428466796875,-0.034967376612889955,61.270034489754515,0.952198713857193,0,0,0,0,0,0,0,0,0,0,0,1.0,0.8571428571428571,,0.0,0.795196533203125,-0.11873650936178146,0.7232789512989551,16.9589795622554,0.14271075581157802,,0.0,0.5612244897959183,0.3781094527363184,0,0,13.185728793014349,13.183943152567007,13.089931338698477,0.09401181393644087,0,0,0.0,0.0,0.0,0,0.0,140.0,8.473583166298873
-0.0517730712890625,-0.01810001900713889,61.270034489754515,0.952198713857193,0,0,0,0,1,0,0,0,0,0,0,1.0,0.9047619047619047,,0.0,0.798370361328125,-0.11595712926267818,0.7232789512989551,16.9589795622554,0.1429216122290901,,0.0,0.5612244897959183,0.3781094527363184,0,0,13.186186556686224,13.183351406984407,13.08968018219214,0.09367122485998901,0,0,0.0,0.0,0.0,0,0.0,140.0,8.473583166298873
0.06585693359375,0.1019481860466299,61.270034489754515,0.952198713857193,0,0,0,0,0,0,0,0,0,0,0,1.0,0.9523809523809523,,0.0,0.801513671875,-0.1130000262125699,0.7232789512989551,16.9589795622554,0.14313606519291291,,0.0,0.5612244897959183,0.3781094527363184,0,0,13.184508089889349,13.182700345316025,13.089429065004751,0.09327128037880911,0,0,0.0,0.0,0.0,0,0.0,140.0,8.473583166298873
0.3202667236328125,0.33163927303338225,61.270034489754515,0.952198713857193,0,0,0,0,0,0,0,0,0,0,0,1.0,1.0,,0.0,0.8052978515625,-0.10986689685282806,0.7232789512989551,16.9589795622554,0.14335407921921992,,0.0,0.5612244897959183,0.3781094527363184,0,0,13.184508089889349,13.181996751451765,13.089177989706354,0.09281876181275857,0,0,0.0,0.0,0.0,0,0.0,140.0,8.473583166298873
0.61309814453125,0.4961265241755437,61.270034489754515,0.952198713857193,1,0,0,0,0,0,0,0,0,0,0,0.0,0.0,1.0,0.0,0.80859375,-0.1065598929489604,0.7232789512989551,16.9589795622554,0.1435756182712351,,0.0,0.5612244897959183,0.3781094527363184,0,0,13.1848132656706,13.181248939045025,13.088926958876073,0.09232198023611338,0,0,0.0,0.0,0.0,0,0.0,140.0,8.473583166298873
0.43145751953125,0.3410763689689307,61.29793245153549,0.952198713857193,0,0,0,0,0,0,0,0,0,0,0,0.0,0.01234567901234568,1.0,0.03333333333333334,0.81268310546875,-0.10308148267213166,0.7232789512989551,16.9589795622554,0.14380064576729348,,0.0,0.5612244897959183,0.3781094527363184,0,0,13.184508089889349,13.180466596042354,13.088675975102074,0.09179062100725278,0,0,0.0,0.0,0.0,0,0.0,140.0,8.473583166298873
-0.1178436279296875,-0.04650947213451799,61.32547216905706,0.952198713857193,0,0,0,0,0,0,0,0,0,0,0,0.0,0.02469135802469136,1.0,0.06666666666666668,0.81640625,-0.09943433866982691,0.7232789512989551,16.9589795622554,0.14402912458902845,,0.0,0.5612244897959183,0.3781094527363184,0,0,13.185728793014349,13.17966055957221,13.088425040981514,0.09123551865748125,0,0,0.0,0.0,0.0,0,0.0,140.0,8.473583166298873
-0.3875274658203125,-0.313145977338833,61.3526545727229,0.952198713857193,0,0,0,0,0,0,0,0,0,0,0,0.0,0.037037037037037035,1.0,0.1,0.820159912109375,-0.09562127990770784,0.7232789512989551,16.9589795622554,0.14426101708968367,,0.0,0.5612244897959183,0.3781094527363184,0,0,13.182677035201849,13.178842526724816,13.088174159120491,0.09066836767092652,0,0,0.0,0.0,0.0,0,0.0,140.0,8.473583166298873
-0.365020751953125,-0.3327307901611575,61.379480611400766,0.952198713857193,0,0,0,0,0,0,0,0,0,0,0,0.0,0.04938271604938272,1.0,0.13333333333333336,0.82452392578125,-0.09164532346322736,0.7232789512989551,16.9589795622554,0.14449628510254714,,0.0,0.5612244897959183,0.3781094527363184,0,0,13.172148470748724,13.178024712404993,13.08792333213399,0.09010138033742204,0,0,0.0,0.0,0.0,0,0.0,140.0,8.473583166298873
-0.2183380126953125,-0.22114688041933386,61.405951252292,0.952198713857193,0,0,0,0,0,0,0,1,0,0,0,0.0,0.06172839506172839,1.0,0.16666666666666666,0.828887939453125,-0.08750978809316437,0.7232789512989551,16.9589795622554,0.14473488994950484,,0.0,0.5612244897959183,0.3781094527363184,0,0,13.173063998092474,13.17721947159888,13.087672562645823,0.08954690901929707,0,0,0.0,0.0,0.0,0,0.0,140.0,8.473583166298873
-0.087554931640625,-0.10045703260682243,61.4320674807997,0.952198713857193,0,0,0,0,0,0,1,0,0,0,0,0.0,0.07407407407407407,1.0,0.2,0.833740234375,-0.08321829992115073,0.7232789512989551,16.9589795622554,0.14497679244971187,,0.0,0.5612244897959183,0.3781094527363184,0,0,13.172148470748724,13.176438908402861,13.087421853288584,0.08901705518034024,0,0,0.0,0.0,0.0,0,0.0,140.0,8.473583166298873
-0.01275634765625,-0.02463168997551802,61.45783030039543,0.952198713857193,0,0,0,0,0,0,0,0,0,0,0,0.0,0.08641975308641975,1.0,0.23333333333333334,0.83856201171875,-0.07877465982397125,0.7232789512989551,16.9589795622554,0.1452219529283784,,0.0,0.5612244897959183,0.3781094527363184,0,0,13.171538119186224,13.17569449587474,13.087171206703587,0.08852328923703852,0,0,0.0,0.0,0.0,0,0.0,140.0,8.473583166298873
0.0104217529296875,0.00849196969671066,61.48324073248458,0.952198713857193,0,0,0,0,0,0,0,0,0,0,0,0.0,0.09876543209876544,1.0,0.2666666666666667,0.843719482421875,-0.0741826163929748,0.7232789512989551,16.9589795622554,0.14547033122566794,,0.0,0.5612244897959183,0.3781094527363184,0,0,13.172148470748724,13.174996728346462,13.086920625540818,0.0880761028713526,0,0,0.0,0.0,0.0,0,0.0,140.0,8.473583166298873
0.0219879150390625,0.020371502776537716,61.508299816270345,0.952198713857193,0,0,0,0,0,0,0,0,0,0,0,0.0,0.1111111111111111,1.0,0.3,0.8486328125,-0.0694456066357767,0.7232789512989551,16.9589795622554,0.1457218867057054,,0.0,0.5612244897959183,0.3781094527363184,0,0,13.172453646529974,13.17435482247421,13.086670112458895,0.0876847100808458,0,0,0.0,0.0,0.0,0,0.0,140.0,8.473583166298873
0.0233917236328125,0.02663178905535308,61.53300860861638,0.952198713857193,0,0,0,0,0,0,0,0,0,0,0,0.0,0.12345679012345678,1.0,0.3333333333333333,0.853485107421875,-0.0645665745617953,0.7232789512989551,16.9589795622554,0.14597657826569208,,0.0,0.5612244897959183,0.3781094527363184,0,0,13.173369173873724,13.173776476997197,13.086419670125016,0.087356806937536,0,0,0.0,0.0,0.0,0,0.0,140.0,8.473583166298873
0.0342254638671875,0.032475951111467595,61.55736818390824,0.952198713857193,0,0,0,0,0,0,0,0,0,0,0,0.0,0.13580246913580246,1.0,0.36666666666666664,0.85858154296875,-0.05954797565931348,0.7232789512989551,16.9589795622554,0.14623436434512543,,0.0,0.5612244897959183,0.3781094527363184,0,0,13.172148470748724,13.173267695388907,13.086169301214925,0.0870983942391653,0,0,0.0,0.0,0.0,0,0.0,140.0,8.473583166298873
0.03466796875,0.035798147455236004,61.58137963391351,0.952198713857193,0,0,0,0,0,0,0,0,0,0,0,0.0,0.14814814814814814,1.0,0.4,0.86395263671875,-0.05439193412662861,0.7232789512989551,16.9589795622554,0.1464952029351209,,0.0,0.5612244897959183,0.3781094527363184,0,0,13.1719958828581,13.172832671000677,13.085919008412871,0.08691366265282027,0,0,0.0,0.0,0.0,0,0.0,140.0,8.473583166298873
0.036346435546875,0.03657154267946247,61.60504406764069,0.952198713857193,0,0,0,0,0,0,0,0,0,0,0,0.0,0.16049382716049382,1.0,0.43333333333333335,0.869049072265625,-0.04910043331909619,0.7232789512989551,16.9589795622554,0.1467590515878326,,0.0,0.5612244897959183,0.3781094527363184,0,0,13.173521761764349,13.172473731063892,13.085668794411596,0.08680493671714132,0,0,0.0,0.0,0.0,0,0.0,140.0,8.473583166298873
0.0357208251953125,0.03880524733940145,61.62836261119704,0.952198713857193,0,0,0,0,0,0,0,0,0,0,0,0.0,0.1728395061728395,1.0,0.4666666666666667,0.874237060546875,-0.04367555452243707,0.7232789512989551,16.9589795622554,0.14702586742597062,,0.0,0.5612244897959183,0.3781094527363184,0,0,13.172758822311224,13.172191333816947,13.08541866191231,0.08677267196931279,0,0,0.0,0.0,0.0,0,0.0,140.0,8.473583166298873
0.044281005859375,0.04370838063822445,61.651336407645104,0.952198713857193,0,0,0,0,0,0,0,0,0,0,0,0.0,0.18518518518518515,1.0,0.5,0.880157470703125,-0.038119817898892835,0.7232789512989551,16.9589795622554,0.14729560715241202,,0.0,0.5612244897959183,0.3781094527363184,0,0,13.173063998092474,13.171984111791415,13.085168613624687,0.08681549823124088,0,0,0.0,0.0,0.0,0,0.0,140.0,8.473583166298873
0.04742431640625,0.0496519236422557,61.6739666168582,0.952198713857193,0,0,0,0,0,0,0,0,0,0,0,0.0,0.19753086419753088,1.0,0.5333333333333334,0.8857421875,-0.032436508247006446,0.7232789512989551,16.9589795622554,0.14756822705990277,,0.0,0.5612244897959183,0.3781094527363184,0,0,13.172758822311224,13.171848953867304,13.084918652266849,0.0869303016647994,0,0,0.0,0.0,0.0,0,0.0,140.0,8.473583166298873
0.0563507080078125,0.055907122791292035,61.696254415374874,0.952198713857193,0,0,0,0,0,0,0,0,0,1,0,0.0,0.20987654320987656,1.0,0.5666666666666667,0.89178466796875,-0.026629885953234456,0.7232789512989551,16.9589795622554,0.14784368304084763,,0.0,0.5612244897959183,0.3781094527363184,0,0,13.171690707076849,13.171781119084773,13.084668780565384,0.0871123385835676,0,0,0.0,0.0,0.0,0,0.0,140.0,8.473583166298873
0.0603485107421875,0.06358009092048952,61.718200996252236,0.952198713857193,0,0,0,0,0,0,0,0,0,0,0,0.0,0.2222222222222222,1.0,0.6,0.89801025390625,-0.020705321845659222,0.7232789512989551,16.9589795622554,0.14812193059718562,,0.0,0.5612244897959183,0.3781094527363184,0,0,13.172453646529974,13.17177437616566,13.084419001255352,0.08735537497431793,0,0,0.0,0.0,0.0,0,0.0,140.0,8.473583166298873
0.074066162109375,0.07434151326420263,61.7398075689183,0.952198713857193,0,0,0,0,0,0,0,0,0,0,0,0.0,0.2345679012345679,1.0,0.6333333333333334,0.90411376953125,-0.014669370948204044,0.7232789512989551,16.9589795622554,0.14840292485034742,,0.0,0.5612244897959183,0.3781094527363184,0,0,13.172148470748724,13.171821163865328,13.084169317080303,0.08765184684887148,0,0,0.0,0.0,0.0,0,0.0,140.0,8.473583166298873
0.085601806640625,0.08721848725004942,61.761075359023366,0.952198713857193,0,0,0,0,0,0,0,0,0,0,0,0.0,0.24691358024691357,1.0,0.6666666666666666,0.9105224609375,-0.008529803541642456,0.7232789512989551,16.9589795622554,0.14868662055129278,,0.0,0.5612244897959183,0.3781094527363184,0,0,13.171690707076849,13.17191276832057,13.083919730792292,0.08799303759196182,0,0,0.0,0.0,0.0,0,0.0,140.0,8.473583166298873
0.1002197265625,0.10065064452037982,61.782005608290405,0.952198713857193,0,0,0,0,0,0,0,0,0,0,0,0.0,0.25925925925925924,1.0,0.7,0.917633056640625,-0.0022955878770439253,0.7232789512989551,16.9589795622554,0.1489729720906238,,0.0,0.5612244897959183,0.3781094527363184,0,0,13.1726062344206,13.17203951436533,13.083670245151922,0.08836926927693393,0,0,0.0,0.0,0.0,0,0.0,140.0,8.473583166298873
0.1130523681640625,0.11434409399918177,61.80259957436461,0.952198713857193,0,0,0,0,0,0,0,0,0,0,0,0.0,0.2716049382716049,1.0,0.7333333333333333,0.92401123046875,0.004023275784881153,0.7232789512989551,16.9589795622554,0.14926193350877248,,0.0,0.5612244897959183,0.3781094527363184,0,0,13.172148470748724,13.172190968383816,13.083420862928358,0.08877010551882289,0,0,0.0,0.0,0.0,0,0.0,140.0,8.473583166298873
0.1273956298828125,0.12442294186347416,61.82285853066205,0.952198713857193,0,0,0,0,0,0,0,0,1,0,0,0.0,0.2839506172839506,1.0,0.7666666666666667,0.931243896484375,0.010416052714853269,0.7232789512989551,16.9589795622554,0.14955345850625845,,0.0,0.5612244897959183,0.3781094527363184,0,0,13.172148470748724,13.172356150714709,13.083171586899383,0.08918456387852924,0,0,0.0,0.0,0.0,0,0.0,140.0,8.473583166298873
0.1260223388671875,0.1279382639071412,61.84278376621736,0.952198713857193,0,0,0,0,0,0,0,0,0,0,0,0.0,0.2962962962962963,1.0,0.8,0.938232421875,0.01687161371763013,0.7232789512989551,16.9589795622554,0.14984750045401446,,0.0,0.5612244897959183,0.3781094527363184,0,0,13.172301058639349,13.17252375594301,13.082922419851425,0.08960133615462623,0,0,0.0,0.0,0.0,0,0.0,140.0,8.473583166298873
0.1282958984375,0.12384466823633512,61.86237658553077,0.952198713857193,0,0,0,0,0,0,0,0,0,0,0,0.0,0.30864197530864196,1.0,0.8333333333333334,0.944976806640625,0.02337881348340104,0.7232789512989551,16.9589795622554,0.15014401240377634,,0.0,0.5612244897959183,0.3781094527363184,0,0,13.172453646529974,13.172682379617196,13.082673364579602,0.0900090151004718,0,0,0.0,0.0,0.0,0,0.0,140.0,8.473583166298873
0.1085357666015625,0.10286464482932484,61.88163830841437,0.952198713857193,0,0,0,0,0,0,0,0,0,0,0,0.0,0.32098765432098764,1.0,0.8666666666666667,0.952178955078125,0.02992684660458647,0.7232789512989551,16.9589795622554,0.1504429470985346,,0.0,0.5612244897959183,0.3781094527363184,0,0,13.172758822311224,13.172820749968103,13.082424423887755,0.09039632614306316,0,0,0.0,0.0,0.0,0,0.0,140.0,8.473583166298873
0.0616302490234375,0.05664765386476425,61.900570269837395,0.952198713857193,0,0,0,0,0,0,0,0,0,0,0,0.0,0.3333333333333333,1.0,0.9,0.959564208984375,0.036505573034364136,0.7232789512989551,16.9589795622554,0.1507442569830444,,0.0,0.5612244897959183,0.3781094527363184,0,0,13.171843294967474,13.172927963059614,13.082175600588496,0.09075236253367078,0,0,0.0,0.0,0.0,0,0.0,140.0,8.473583166298873
-0.009918212890625,-0.00789042706475259,61.91917381977114,0.952198713857193,0,0,0,0,0,0,0,0,0,0,0,0.0,0.345679012345679,1.0,0.9333333333333333,0.966339111328125,0.04310591602711092,0.7232789512989551,16.9589795622554,0.1510478942143911,,0.0,0.5612244897959183,0.3781094527363184,0,0,13.171690707076849,13.172993719491306,13.081926897503243,0.09106682205045685,0,0,0.0,0.0,0.0,0,0.0,140.0,8.473583166298873
-0.078338623046875,-0.07409861379752486,61.9374503230329,0.952198713857193,0,0,0,0,0,0,0,0,0,0,0,0.0,0.35802469135802467,1.0,0.9666666666666667,0.973419189453125,0.04972026152746853,0.7232789512989551,16.9589795622554,0.1513538106726079,,0.0,0.5612244897959183,0.3781094527363184,0,0,13.172453646529974,13.173008560270283,13.081678317462243,0.09133024287027158,0,0,0.0,0.0,0.0,0,0.0,140.0,8.473583166298873
-0.13507080078125,-0.1278665112152614,61.955401159129444,0.952198713857193,0,0,0,0,0,0,0,0,0,0,0,0.0,0.3703703703703703,1.0,1.0,0.980255126953125,0.0563427161075267,0.7232789512989551,16.9589795622554,0.15166195797134285,,0.0,0.5612244897959183,0.3781094527363184,0,0,13.171690707076849,13.172964098653305,13.08142986330462,0.09153423541075585,0,0,0.0,0.0,0.0,0,0.0,140.0,8.473583166298873
-0.1685638427734375,-0.1634073941118651,61.9730277220998,0.952198713857193,0,0,0,0,0,0,0,0,0,0,1,0.0,0.38271604938271603,0.0,0.0,0.986907958984375,0.06296922495928103,0.7232789512989551,16.9589795622554,0.15197228746857175,,0.0,0.5612244897959183,0.3781094527363184,0,0,13.173521761764349,13.172853243575716,13.081181537878388,0.09167170575923708,0,0,0.0,0.0,0.0,0,0.0,140.0,8.473583166298873
-0.1873321533203125,-0.1815377785433896,61.990331420357485,0.952198713857193,0,0,0,0,0,0,0,0,0,0,0,0.0,0.39506172839506176,0.0,0.015625,0.99383544921875,0.06959757713320805,0.7232789512989551,16.9589795622554,0.15228475027735394,,0.0,0.5612244897959183,0.3781094527363184,0,0,13.171843294967474,13.17267040889434,13.080933344040476,0.09173706491561343,0,0,0.0,0.0,0.0,0,0.0,140.0,8.473583166298873
-0.1891632080078125,-0.1865302964035944,62.00731367653219,0.952198713857193,0,0,0,0,0,0,0,0,0,0,0,0.0,0.4074074074074074,0.0,0.03125,1.000823974609375,0.07622735522982564,0.7232789512989551,16.9589795622554,0.15259929727662794,,0.0,0.5612244897959183,0.3781094527363184,0,0,13.172911410201849,13.172411701386157,13.080685284656738,0.0917264167910085,0,0,0.0,0.0,0.0,0,0.0,140.0,8.473583166298873
-0.1870574951171875,-0.1818679371902166,62.023975927310936,0.952198713857193,0,0,0,0,0,0,0,0,0,0,0,0.0,0.4197530864197531,0.0,0.046875,1.007598876953125,0.08285993025365175,0.7232789512989551,16.9589795622554,0.15291587912204355,,0.0,0.5612244897959183,0.3781094527363184,0,0,13.172453646529974,13.172075079508886,13.08043736260196,0.09163771696835878,0,0,0.0,0.0,0.0,0,0.0,140.0,8.473583166298873
-0.1711578369140625,-0.1690767504680805,62.04031962327877,0.952198713857193,0,0,0,0,0,0,0,0,0,0,0,0.0,0.43209876543209874,0.0,0.0625,1.0142822265625,0.08949847481724793,0.7232789512989551,16.9589795622554,0.1532344462568275,,0.0,0.5612244897959183,0.3781094527363184,0,0,13.172148470748724,13.171660474417221,13.08018958075986,0.09147089371863765,0,0,0.0,0.0,0.0,0,0.0,140.0,8.473583166298873
-0.1542816162109375,-0.1523454440878879,62.056346228759,0.952198713857193,0,0,0,0,0,0,0,0,0,0,0,0.0,0.4444444444444444,0.0,0.078125,1.020965576171875,0.09614788371271556,0.7232789512989551,16.9589795622554,0.1535549489226791,,0.0,0.5612244897959183,0.3781094527363184,0,0,13.172758822311224,13.171169864615097,13.079941942023076,0.09122792265314182,0,0,0.0,0.0,0.0,0,0.0,140.0,8.473583166298873
-0.1374053955078125,-0.13658370311209544,62.072057221653004,0.952198713857193,0,0,0,0,0,0,0,0,0,0,0,0.0,0.4567901234567901,0.0,0.09375,1.027618408203125,0.1028145800740081,0.7232789512989551,16.9589795622554,0.15387733717069293,,0.0,0.5612244897959183,0.3781094527363184,0,0,13.172758822311224,13.17060729591997,13.079694449293152,0.09091284668778406,0,0,0.0,0.0,0.0,0,0.0,140.0,8.473583166298873
-0.125396728515625,-0.12193284028794217,62.087454093279725,0.952198713857193,0,0,0,0,0,0,0,0,0,0,0,0.0,0.4691358024691358,0.0,0.109375,1.03411865234375,0.10950624056211196,0.7232789512989551,16.9589795622554,0.15420156087230555,,0.0,0.5612244897959183,0.3781094527363184,0,0,13.1726062344206,13.169978839225045,13.079447105480519,0.09053173380533618,0,0,0.0,0.0,0.0,0,0.0,140.0,8.473583166298873
-0.1081085205078125,-0.10738212889790913,62.10253834821467,0.952198713857193,0,0,0,0,0,0,0,0,0,0,0,0.0,0.48148148148148145,0.0,0.125,1.04107666015625,0.11623146458651792,0.7232789512989551,16.9589795622554,0.1545275697302624,,0.0,0.5612244897959183,0.3781094527363184,0,0,13.173521761764349,13.169292480061868,13.079199913504457,0.09009256661806353,0,0,0.0,0.0,0.0,0,0.0,140.0,8.473583166298873
-0.096923828125,-0.09331320568311152,62.117311504128764,0.952198713857193,0,0,0,0,0,0,0,0,0,0,0,0.0,0.49382716049382713,0.0,0.140625,1.0479736328125,0.12299946589474259,0.7232789512989551,16.9589795622554,0.15485531328960234,,0.0,0.5612244897959183,0.3781094527363184,0,0,13.1719958828581,13.16855793641142,13.078952876293068,0.08960506017884762,0,0,0.0,0.0,0.0,0,0.0,140.0,8.473583166298873
-0.08074951171875,-0.07957364857612269,62.131775091626736,0.952198713857193,0,0,0,0,0,0,0,0,0,0,0,0.0,0.5061728395061729,0.0,0.15625,1.055023193359375,0.12981987280008575,0.7232789512989551,16.9589795622554,0.15518474094865625,,0.0,0.5612244897959183,0.3781094527363184,0,0,13.172148470748724,13.16778640474488,13.078705996783219,0.0890804080220019,0,0,0.0,0.0,0.0,0,0.0,140.0,8.473583166298873
-0.0697784423828125,-0.06652983300315009,62.145930654085475,0.952198713857193,0,0,0,0,0,0,0,0,0,0,0,0.0,0.5185185185185185,0.0,0.17187500000000003,1.0618896484375,0.13670260612625657,0.7232789512989551,16.9589795622554,0.15551580197005654,,0.0,0.5612244897959183,0.3781094527363184,0,0,13.172453646529974,13.166990238907497,13.078459277920508,0.08853096104716894,0,0,0.0,0.0,0.0,0,0.0,140.0,8.473583166298873
-0.056182861328125,-0.05552469541781109,62.15977974749187,0.952198713857193,0,0,0,0,0,0,0,0,0,0,0,0.0,0.5308641975308641,0.0,0.1875,1.068878173828125,0.1436577326294661,0.7232789512989551,16.9589795622554,0.1558484454917543,,0.0,0.5612244897959183,0.3781094527363184,0,0,13.163603548873724,13.166182572020652,13.07821272265921,0.08796984942146258,0,0,0.0,0.0,0.0,0,0.0,140.0,8.473583166298873
-0.0507965087890625,-0.04857255738694201,62.17332394028075,0.952198713857193,0,0,0,0,0,0,0,0,0,0,0,0.0,0.5432098765432098,0.0,0.203125,1.075836181640625,0.150695236924268,0.7232789512989551,16.9589795622554,0.15618262053804105,,0.0,0.5612244897959183,0.3781094527363184,0,0,13.1610095547331,13.165376897583158,13.077966333962218,0.08741056368079822,0,0,0.0,0.0,0.0,0,0.0,140.0,8.473583166298873
-0.0478363037109375,-0.04370138010159254,62.186564813172446,0.952198713857193,0,0,0,0,0,0,0,0,0,0,0,0.0,0.5555555555555556,0.0,0.21875,1.0828857421875,0.15782471648968807,0.7232789512989551,16.9589795622554,0.15651827603057133,,0.0,0.5612244897959183,0.3781094527363184,0,0,13.1597888516081,13.164586631266092,13.077720114801002,0.08686651652478539,0,0,0.0,0.0,0.0,0,0.0,140.0,8.473583166298873
-0.0401458740234375,-0.03706610653985628,62.19950395901032,0.952198713857193,0,0,0,0,0,0,0,0,0,0,0,0.0,0.5679012345679012,0.0,0.234375,1.09033203125,0.16505504564739168,0.7232789512989551,16.9589795622554,0.15685536079938403,,0.0,0.5612244897959183,0.3781094527363184,0,0,13.159636263717474,13.163824677765211,13.077474068155544,0.08635060966920191,0,0,0.0,0.0,0.0,0,0.0,140.0,8.473583166298873
-0.032440185546875,-0.03045980026598509,62.21214298259818,0.952198713857193,0,0,0,0,0,0,0,0,0,0,0,0.0,0.5802469135802468,0.0,0.25,1.097625732421875,0.17239408000726517,0.7232789512989551,16.9589795622554,0.15719382359391784,,0.0,0.5612244897959183,0.3781094527363184,0,0,13.159941439498724,13.163103026206185,13.077228197014287,0.08587482925127163,0,0,0.0,0.0,0.0,0,0.0,140.0,8.473583166298873
-0.0296173095703125,-0.026095139459593894,62.2244835005376,0.952198713857193,0,0,0,0,0,0,0,0,0,0,0,0.0,0.5925925925925926,0.0,0.265625,1.105010986328125,0.17984840758339365,0.7232789512989551,16.9589795622554,0.1575336130940185,,0.0,0.5612244897959183,0.3781094527363184,0,0,13.160094027389349,13.16243239331126,13.076982504374092,0.08544988899638163,0,0,0.0,0.0,0.0,0,0.0,140.0,8.473583166298873
-0.0260162353515625,-0.023613694153512926,62.23652714106522,0.952198713857193,0,0,0,0,0,0,0,0,0,0,0,0.0,0.6049382716049383,0.0,0.28125,1.11273193359375,0.18742308327178947,0.7232789512989551,16.9589795622554,0.15787467792093451,,0.0,0.5612244897959183,0.3781094527363184,0,0,13.160704378951849,13.161821927495938,13.076736993240184,0.08508493431480889,0,0,0.0,0.0,0.0,0,0.0,140.0,8.473583166298873
-0.0266265869140625,-0.021558399277970087,62.24827554389003,0.952198713857193,0,0,0,0,0,0,0,0,0,0,0,0.0,0.6172839506172839,0.0,0.296875,1.120269775390625,0.19512134187496988,0.7232789512989551,16.9589795622554,0.15821696664829787,,0.0,0.5612244897959183,0.3781094527363184,0,0,13.160856966842474,13.161278981000406,13.076491666626113,0.08478731443318974,0,0,0.0,0.0,0.0,0,0.0,140.0,8.473583166298873
-0.02130126953125,-0.018773548462287033,62.25973036003063,0.952198713857193,0,0,0,0,0,0,0,0,0,0,0,0.0,0.6296296296296295,0.0,0.3125,1.128265380859375,0.20294431863560966,0.7232789512989551,16.9589795622554,0.15856042781308682,,0.0,0.5612244897959183,0.3781094527363184,0,0,13.159483675826849,13.160808952094516,13.076246527553725,0.08456242459953206,0,0,0.0,0.0,0.0,0,0.0,140.0,8.473583166298873
-0.020721435546875,-0.015522500244477468,62.27089325165265,0.952198713857193,0,0,0,0,0,0,0,0,0,0,0,0.0,0.6419753086419753,0.0,0.328125,1.1358642578125,0.21089076057603456,0.7232789512989551,16.9589795622554,0.15890500992656756,,0.0,0.5612244897959183,0.3781094527363184,0,0,13.159483675826849,13.160415195654934,13.076001579053122,0.08441361666039493,0,0,0.0,0.0,0.0,0,0.0,140.0,8.473583166298873
-0.0147247314453125,-0.012755256112559864,62.2817658919061,0.952198713857193,0,0,0,0,0,0,0,0,0,0,0,0.0,0.6543209876543211,0.0,0.34375000000000006,1.143768310546875,0.21895667576728026,0.7232789512989551,16.9589795622554,0.15925066148521114,,0.0,0.5612244897959183,0.3781094527363184,0,0,13.160856966842474,13.1600989978412,13.075756824162653,0.08434217373697123,0,0,0.0,0.0,0.0,0,0.0,140.0,8.473583166298873
-0.016754150390625,-0.011570588111930773,62.292349964762906,0.952198713857193,0,0,0,0,0,0,0,0,0,0,0,0.0,0.6666666666666666,0.0,0.359375,1.151580810546875,0.22713487296921983,0.7232789512989551,16.9589795622554,0.15959733098158332,,0.0,0.5612244897959183,0.3781094527363184,0,0,13.160094027389349,13.15985960880557,13.07551226592889,0.08434734293495079,0,0,0.0,0.0,0.0,0,0.0,140.0,8.473583166298873
-0.0144805908203125,-0.010118504592976132,62.30264716485459,0.952198713857193,0,0,0,0,0,0,0,0,0,0,0,0.0,0.6790123456790123,0.0,0.375,1.159820556640625,0.2354144251073127,0.7232789512989551,16.9589795622554,0.15994496691520327,,0.0,0.5612244897959183,0.3781094527363184,0,0,13.1603992031706,13.159694326109733,13.075267907406626,0.08442641876122724,0,0,0.0,0.0,0.0,0,0.0,140.0,8.473583166298873
-0.01171875,-0.007979522604726473,62.31265919731009,0.952198713857193,0,0,0,0,0,0,0,0,0,0,0,0.0,0.691358024691358,0.0,0.390625,1.167510986328125,0.24378011687546575,0.7232789512989551,16.9589795622554,0.16029351780336867,,0.0,0.5612244897959183,0.3781094527363184,0,0,13.1610095547331,13.15959862084284,13.075023751658874,0.08457486924193623,0,0,0.0,0.0,0.0,0,0.0,140.0,8.473583166298873
-0.0114898681640625,-0.005870936143475714,62.32238777759372,0.952198713857193,0,0,0,0,0,0,0,0,0,0,0,0.0,0.7037037037037038,0.0,0.40625,1.1842041015625,0.2522124786734106,0.7232789512989551,16.9589795622554,0.16064293219194398,,0.0,0.5612244897959183,0.3781094527363184,0,0,13.160246615279974,13.159566298461593,13.07477980175687,0.08478649676254423,0,0,0.0,0.0,0.0,0,0.0,140.0,8.473583166298873
-0.006805419921875,-0.0027400167797254765,62.331834631343455,0.952198713857193,0,0,0,0,0,0,0,0,0,0,0,0.0,0.7160493827160493,0.0,0.421875,1.19232177734375,0.26068965234780256,0.7232789512989551,16.9589795622554,0.16099315866610825,,0.0,0.5612244897959183,0.3781094527363184,0,0,13.159483675826849,13.159589687049277,13.074536060780098,0.08505362632685087,0,0,0.0,0.0,0.0,0,0.0,140.0,8.473583166298873
-0.0044097900390625,0.0016572510417089932,62.341001494209344,0.952198713857193,0,0,0,0,0,0,0,0,0,0,0,0.0,0.728395061728395,0.0,0.4375,1.200347900390625,0.26919051669619226,0.7232789512989551,16.9589795622554,0.16134414586106002,,0.0,0.5612244897959183,0.3781094527363184,0,0,13.160246615279974,13.159659846791648,13.0742925318163,0.08536731503286674,0,0,0.0,0.0,0.0,0,0.0,140.0,8.473583166298873
0.003173828125,0.005787236942589197,62.349890111692325,0.952198713857193,0,0,0,0,0,0,0,0,0,0,0,0.0,0.7407407407407406,0.0,0.453125,1.208770751953125,0.27769656651789065,0.7232789512989551,16.9589795622554,0.16169584247267613,,0.0,0.5612244897959183,0.3781094527363184,0,0,13.160094027389349,13.15976679567943,13.074049217961507,0.08571757777529035,0,0,0.0,0.0,0.0,0,0.0,140.0,8.473583166298873
0.0016021728515625,0.007284709574494467,62.35850223898316,0.952198713857193,0,0,0,0,0,0,0,0,0,0,0,0.0,0.7530864197530865,0.0,0.46875,1.217498779296875,0.28619196827505966,0.7232789512989551,16.9589795622554,0.16204819726812078,,0.0,0.5612244897959183,0.3781094527363184,0,0,13.160094027389349,13.159899747481823,13.073806122320068,0.08609362521897415,0,0,0.0,0.0,0.0,0,0.0,140.0,8.473583166298873
0.00262451171875,0.006698869370151524,62.36683964080185,0.952198713857193,0,0,0,0,0,0,0,0,0,0,0,0.0,0.7654320987654321,0.0,0.484375,1.225830078125,0.2946631737768649,0.7232789512989551,16.9589795622554,0.16240115909640296,,0.0,0.5612244897959183,0.3781094527363184,0,0,13.159331087936224,13.160047358793584,13.073563248004678,0.0864841108459713,0,0,0.0,0.0,0.0,0,0.0,140.0,8.473583166298873
-0.0007171630859375,0.006249757266566772,62.37490409123741,0.952198713857193,0,0,0,0,0,0,0,0,0,0,0,0.0,0.7777777777777776,0.0,0.5,1.23406982421875,0.3030986630349403,0.7232789512989551,16.9589795622554,0.16275467689887796,,0.0,0.5612244897959183,0.3781094527363184,0,0,13.160094027389349,13.160197982494344,13.073320598136423,0.08687738441483564,0,0,0.0,0.0,0.0,0,0.0,140.0,8.473583166298873
0.00262451171875,0.0070893020954015855,62.38269737358784,0.952198713857193,0,0,0,0,0,0,0,0,0,0,0,0.0,0.7901234567901235,0.0,0.515625,1.242706298828125,0.31148865563805433,0.7232789512989551,16.9589795622554,0.16310869971969089,,0.0,0.5612244897959183,0.3781094527363184,0,0,13.159941439498724,13.160339925272853,13.073078175844815,0.08726174948480372,0,0,0.0,0.0,0.0,0,0.0,140.0,8.473583166298873
0.0021209716796875,0.007836476855568604,62.390221280200684,0.952198713857193,0,0,0,0,0,0,0,0,0,0,0,0.0,0.8024691358024693,0.0,0.53125,1.25103759765625,0.31982481894103726,0.7232789512989551,16.9589795622554,0.16346317671615898,,0.0,0.5612244897959183,0.3781094527363184,0,0,13.159483675826849,13.160461706875134,13.072835984267824,0.0876257226639273,0,0,0.0,0.0,0.0,0,0.0,140.0,8.473583166298873
0.00225830078125,0.007094998926782937,62.39747761231398,0.952198713857193,0,0,0,0,0,0,0,0,0,0,0,0.0,0.8148148148148148,0.0,0.546875,1.259246826171875,0.32810004711180746,0.7232789512989551,16.9589795622554,0.16381805716908948,,0.0,0.5612244897959183,0.3781094527363184,0,0,13.160856966842474,13.160552318416771,13.07259402655192,0.08795829192131888,0,0,0.0,0.0,0.0,0,0.0,140.0,8.473583166298873
-0.0009918212890625,0.006997183843354433,62.40446817989755,0.952198713857193,0,0,0,0,0,0,0,0,0,0,0,0.0,0.8271604938271603,0.0,0.5625,1.267364501953125,0.3363082328473164,0.7232789512989551,16.9589795622554,0.16417329049303067,,0.0,0.5612244897959183,0.3781094527363184,0,0,13.160246615279974,13.160601476548992,13.072352305852107,0.08824917075320007,0,0,0.0,0.0,0.0,0,0.0,140.0,8.473583166298873
0.0044708251953125,0.008317318106886877,62.411194801494915,0.952198713857193,0,0,0,0,0,0,0,0,0,0,0,0.0,0.8395061728395062,0.0,0.578125,1.275482177734375,0.34444396578658,0.7232789512989551,16.9589795622554,0.1645288262464528,,0.0,0.5612244897959183,0.3781094527363184,0,0,13.160704378951849,13.160599869625223,13.072110825331958,0.08848904434942655,0,0,0.0,0.0,0.0,0,0.0,140.0,8.473583166298873
0.0015716552734375,0.008663492688429173,62.41765930406563,0.952198713857193,0,0,0,0,0,0,0,0,0,0,0,0.0,0.8518518518518519,0.0,0.59375,1.283935546875,0.3525022341321106,0.7232789512989551,16.9589795622554,0.16488461414185612,,0.0,0.5612244897959183,0.3781094527363184,0,0,13.159941439498724,13.160539391429136,13.07186958816364,0.0886698033215057,0,0,0.0,0.0,0.0,0,0.0,140.0,8.473583166298873
0.0027923583984375,0.008230166507345864,62.42386352282817,0.952198713857193,0,0,0,0,0,0,0,0,0,0,0,0.0,0.8641975308641975,0.0,0.609375,1.292083740234375,0.3604782529678399,0.7232789512989551,16.9589795622554,0.1652406040558036,,0.0,0.5612244897959183,0.3781094527363184,0,0,13.1591785000456,13.16041335758467,13.071628597527935,0.0887847601125934,0,0,0.0,0.0,0.0,0,0.0,140.0,8.473583166298873
0.0010223388671875,0.008039590990583559,62.42980930110333,0.952198713857193,0,0,0,0,0,0,0,0,0,0,0,0.0,0.8765432098765432,0.0,0.625,1.300048828125,0.36836742349738755,0.7232789512989551,16.9589795622554,0.1655967460388748,,0.0,0.5612244897959183,0.3781094527363184,0,0,13.160551791061224,13.160216699393013,13.07138785661426,0.0888288428344637,0,0,0.0,0.0,0.0,0,0.0,140.0,8.473583166298873
0.0020904541015625,0.008167975839449768,62.43549849015827,0.952198713857193,0,0,0,0,0,0,0,0,0,0,0,0.0,0.8888888888888888,0.0,0.6406249999999999,1.30767822265625,0.3761652741980521,0.7232789512989551,16.9589795622554,0.16595299032553892,,0.0,0.5612244897959183,0.3781094527363184,0,0,13.159636263717474,13.159946129344739,13.071147368620677,0.08879876077962794,0,0,0.0,0.0,0.0,0,0.0,140.0,8.473583166298873
0.0017547607421875,0.008798345466960117,62.44093294905106,0.952198713857193,0,0,0,0,0,0,0,0,0,0,0,0.0,0.9012345679012346,0.0,0.65625,1.31561279296875,0.3838672802597756,0.7232789512989551,16.9589795622554,0.16630928734394362,,0.0,0.5612244897959183,0.3781094527363184,0,0,13.1610095547331,13.159600271883834,13.070907136753894,0.08869313518536022,0,0,0.0,0.0,0.0,0,0.0,140.0,8.473583166298873
0.0034027099609375,0.008961688889123524,62.446114544475975,0.952198713857193,0,0,0,0,0,0,0,0,0,0,0,0.0,0.9135802469135802,0.0,0.671875,1.323028564453125,0.39146861728734084,0.7232789512989551,16.9589795622554,0.16666558772561732,,0.0,0.5612244897959183,0.3781094527363184,0,0,13.160246615279974,13.159179752381329,13.070667164229265,0.08851258820733582,0,0,0.0,0.0,0.0,0,0.0,140.0,8.473583166298873
0.0006256103515625,0.009481906000020286,62.45104515060923,0.952198713857193,0,0,0,0,0,0,0,0,0,0,0,0.0,0.9259259259259258,0.0,0.6875000000000001,1.330352783203125,0.3989638918403917,0.7232789512989551,16.9589795622554,0.1670218423150824,,0.0,0.5612244897959183,0.3781094527363184,0,0,13.158720736373724,13.158687237076832,13.070427454270785,0.08825978286117239,0,0,0.0,0.0,0.0,0,0.0,140.0,8.473583166298873
0.0061492919921875,0.010675545103887485,62.455726648955654,0.952198713857193,0,0,0,0,0,0,0,0,0,0,0,0.0,0.9382716049382716,0.0,0.703125,1.337921142578125,0.40634681894472896,0.7232789512989551,16.9589795622554,0.1673780021793762,,0.0,0.5612244897959183,0.3781094527363184,0,0,13.160551791061224,13.158127417188096,13.070188010111064,0.08793940713201118,0,0,0.0,0.0,0.0,0,0.0,140.0,8.473583166298873
0.002197265625,0.01102047355008209,62.46016092819577,0.952198713857193,0,0,1,0,0,0,0,0,0,0,0,0.0,0.9506172839506173,0.0,0.71875,1.345550537109375,0.4136099336804286,0.7232789512989551,16.9589795622554,0.16773401861747803,,0.0,0.5612244897959183,0.3781094527363184,0,0,13.159483675826849,13.157506931423095,13.069948834991305,0.0875580964866231,0,0,0.0,0.0,0.0,0,0.0,140.0,8.473583166298873
0.0055084228515625,0.013617974879291391,62.46434988403375,0.952198713857193,0,0,0,0,0,0,0,0,0,0,0,0.0,0.9629629629629629,0.0,0.734375,1.352630615234375,0.4207444613515149,0.7232789512989551,16.9589795622554,0.16808984316963868,,0.0,0.5612244897959183,0.3781094527363184,0,0,13.161162142623724,13.156834222635327,13.069709932161278,0.08712429052873435,0,0,0.0,0.0,0.0,0,0.0,140.0,8.473583166298873
0.012786865234375,0.01977261330146837,62.4682954190461,0.952198713857193,0,0,0,0,0,0,0,0,0,0,0,0.0,0.9753086419753085,0.0,0.75,1.3603515625,0.42774031228239734,0.7232789512989551,16.9589795622554,0.1684454276266107,,0.0,0.5612244897959183,0.3781094527363184,0,0,13.160094027389349,13.156119326461155,13.069471304879276,0.08664802163641791,0,0,0.0,0.0,0.0,0,0.0,140.0,8.473583166298873
0.01910400390625,0.02533775368924906,62.47199944253098,0.952198713857193,0,0,0,0,0,0,0,0,0,0,0,0.0,0.9876543209876543,0.0,0.765625,1.367218017578125,0.43458615254245386,0.7232789512989551,16.9589795622554,0.1688007240387764,,0.0,0.5612244897959183,0.3781094527363184,0,0,13.159941439498724,13.155373592842219,13.069232956412078,0.08614063648453232,0,0,0.0,0.0,0.0,0,0.0,140.0,8.473583166298873
0.021026611328125,0.03200325075888792,62.47546387035838,0.952198713857193,0,0,0,0,0,0,0,0,0,0,0,0.0,1.0,0.0,0.78125,1.374237060546875,0.44126952829571764,0.7232789512989551,16.9589795622554,0.1691556847251719,,0.0,0.5612244897959183,0.3781094527363184,0,0,13.160094027389349,13.15460934567539,13.068994890034903,0.08561445569473086,0,0,0.0,0.0,0.0,0,0.0,140.0,8.473583166298873
0.037109375,0.04001700665761927,62.47869062482112,0.952198713857193,0,1,0,0,0,0,0,0,0,0,0,1.0,0.0,0.0,0.796875,1.3809814453125,0.44777696587305044,0.7232789512989551,16.9589795622554,0.16951026228240387,,0.0,0.5612244897959183,0.3781094527363184,0,0,13.148344759811224,13.153839491390032,13.068757109031358,0.08508238241277441,0,0,0.0,0.0,0.0,0,0.0,140.0,8.473583166298873
0.03466796875,0.03896484764119364,62.48168163448652,0.952198713857193,0,0,0,0,0,0,0,0,0,0,0,1.0,0.07692307692307693,0.0,0.8125,1.387237548828125,0.4540940120642383,0.7232789512989551,16.9589795622554,0.16986440959345747,,0.0,0.5612244897959183,0.3781094527363184,0,0,13.1488025234831,13.153077093350007,13.068519616693392,0.0845574767105691,0,0,0.0,0.0,0.0,0,0.0,140.0,8.473583166298873
0.01885986328125,0.025951371208927463,62.48443883404906,0.952198713857193,0,0,0,0,0,0,0,0,0,0,0,1.0,0.15384615384615385,0.0,0.828125,1.39434814453125,0.4602052647789042,0.7232789512989551,16.9589795622554,0.17021807983639267,,0.0,0.5612244897959183,0.3781094527363184,0,0,13.1488025234831,13.152334934060734,13.068282416321239,0.08405251779330605,0,0,0.0,0.0,0.0,0,0.0,140.0,8.473583166298873
0.0004730224609375,0.011505097436647856,62.486964164183746,0.952198713857193,0,0,0,1,0,0,0,0,0,0,0,1.0,0.23076923076923078,0.0,0.84375,1.400238037109375,0.46609450918514994,0.7232789512989551,16.9589795622554,0.17057122649292691,,0.0,0.5612244897959183,0.3781094527363184,0,0,13.1475818203581,13.151625089252105,13.06804551122337,0.08357957808240057,0,0,0.0,0.0,0.0,0,0.0,140.0,8.473583166298873
-0.0051116943359375,0.0034766317830652867,62.48925957140045,0.952198713857193,0,0,0,0,0,0,0,0,0,0,0,1.0,0.3076923076923077,0.0,0.859375,1.40606689453125,0.47174495001387856,0.7232789512989551,16.9589795622554,0.17092380335690194,,0.0,0.5612244897959183,0.3781094527363184,0,0,13.148497347701849,13.150958536081255,13.067808904716449,0.08314963141832352,0,0,0.0,0.0,0.0,0,0.0,140.0,8.473583166298873
-0.0080413818359375,0.0012212517232276768,62.49132700789906,0.952198713857193,0,0,0,0,0,0,0,0,0,0,0,1.0,0.38461538461538475,0.0,0.875,1.4117431640625,0.47713935378655503,0.7232789512989551,16.9589795622554,0.17127576454263252,,0.0,0.5612244897959183,0.3781094527363184,0,0,13.1488025234831,13.15034481294928,13.067572600125278,0.08277221287737016,0,0,0.0,0.0,0.0,0,0.0,140.0,8.473583166298873
-0.0059814453125,0.0004512016330163041,62.493168431425566,0.952198713857193,0,0,0,0,0,0,0,0,0,0,0,1.0,0.46153846153846156,0.0,0.8906250000000001,1.417510986328125,0.4822601115198116,0.7232789512989551,16.9589795622554,0.17162706449313506,,0.0,0.5612244897959183,0.3781094527363184,0,0,13.1481921719206,13.149791742680046,13.067336600782767,0.08245514195049847,0,0,0.0,0.0,0.0,0,0.0,140.0,8.473583166298873
-0.0106048583984375,-0.0008591558818302064,62.49478580512909,0.952198713857193,0,0,0,0,0,0,0,0,0,0,0,1.0,0.5384615384615385,0.0,0.90625,1.4227294921875,0.4870894176688206,0.7232789512989551,16.9589795622554,0.1719776579882335,,0.0,0.5612244897959183,0.3781094527363184,0,0,13.147734408248724,13.149305225490089,13.067100910029888,0.08220431551326718,0,0,0.0,0.0,0.0,0,0.0,140.0,8.473583166298873
-0.009002685546875,-0.0017485475440740445,62.496181097419786,0.952198713857193,0,0,0,0,0,1,0,0,0,0,0,1.0,0.6153846153846154,0.0,0.921875,1.42803955078125,0.4916096108842324,0.7232789512989551,16.9589795622554,0.17232750015254172,,0.0,0.5612244897959183,0.3781094527363184,0,0,13.148649935592474,13.148889103835552,13.066865531215655,0.0820235726728123,0,0,0.0,0.0,0.0,0,0.0,140.0,8.473583166298873
-0.011474609375,-0.006424612198259886,62.49735628182771,0.952198713857193,0,0,0,0,0,0,0,0,0,0,0,1.0,0.6923076923076923,0.0,0.9375,1.432464599609375,0.49580359439224186,0.7232789512989551,16.9589795622554,0.17267654646331887,,0.0,0.5612244897959183,0.3781094527363184,0,0,13.147734408248724,13.148545097857284,13.066630467697081,0.08191463021296627,0,0,0.0,0.0,0.0,0,0.0,140.0,8.473583166298873
-0.02716064453125,-0.023298782442327217,62.49831333686278,0.952198713857193,0,0,0,0,0,0,0,0,0,0,0,1.0,0.7692307692307695,0.0,0.953125,1.436492919921875,0.49965521468713114,0.7232789512989551,16.9589795622554,0.17302475275819718,,0.0,0.5612244897959183,0.3781094527363184,0,0,13.1488025234831,13.148272807571391,13.066395722839184,0.08187708478482311,0,0,0.0,0.0,0.0,0,0.0,140.0,8.473583166298873
-0.061126708984375,-0.02485185473612342,62.49905424587546,0.952198713857193,0,0,0,0,0,0,0,0,0,0,0,1.0,0.8461538461538463,0.0,0.96875,1.44024658203125,0.5031494789516413,0.7232789512989551,16.9589795622554,0.1733720752427792,,0.0,0.5612244897959183,0.3781094527363184,0,0,13.147734408248724,13.148069776048667,13.06616130001496,0.08190847608617828,0,0,0.0,0.0,0.0,0,0.0,140.0,8.473583166298873
0.0159759521484375,0.06120847881991779,62.49958099691879,0.952198713857193,0,0,0,0,1,0,0,0,0,0,0,1.0,0.9230769230769231,0.0,0.984375,1.443695068359375,0.5062726389856945,0.7232789512989551,16.9589795622554,0.17371847049810382,,0.0,0.5612244897959183,0.3781094527363184,0,0,13.149107699264349,13.1479316065745,13.065927202605385,0.08200440402144571,0,0,0.0,0.0,0.0,0,0.0,140.0,8.473583166298873
0.23968505859375,0.2697943101317231,62.499895582611096,0.952198713857193,0,0,0,0,0,0,0,0,0,0,0,1.0,1.0,0.0,1.0,1.447601318359375,0.5090123346636458,0.7232789512989551,16.9589795622554,0.1740638954879778,,0.0,0.5612244897959183,0.3781094527363184,0,0,13.147734408248724,13.147852126150408,13.065693433999414,0.08215869220318392,0,0,0.0,0.0,0.0,0,0.0,140.0,8.473583166298873
0.549224853515625,0.4869682462721223,62.5,0.9869213948558517,1,0,0,0,0,0,0,0,0,0,0,0.0,0.0,1.0,0.0,1.449615478515625,0.511357924515224,0.7232789512989551,16.9589795622554,0.17440830756617265,,0.0,0.5612244897959183,0.3781094527363184,0,0,13.1481921719206,13.147823587598804,13.065459997593992,0.08236359005686325,0,0,0.0,0.0,0.0,0,0.0,140.0,8.473583166298873
0.574859619140625,0.4426115612956837,62.499627621863205,0.9869213948558517,0,0,0,0,0,0,0,0,0,0,0,0.0,0.013157894736842105,1.0,0.03333333333333334,1.45172119140625,0.5133008054561341,0.7232789512989551,16.9589795622554,0.17475166448348417,,0.0,0.5612244897959183,0.3781094527363184,0,0,13.1488025234831,13.147836902829034,13.065226896794071,0.08261000608687538,0,0,0.0,0.0,0.0,0,0.0,140.0,8.473583166298873
0.0363616943359375,0.07879425235048418,62.49851757913692,0.9869213948558517,0,0,0,0,0,0,0,0,0,0,0,0.0,0.02631578947368421,1.0,0.06666666666666668,1.453704833984375,0.5148344829600078,0.7232789512989551,16.9589795622554,0.17509392439465352,,0.0,0.5612244897959183,0.3781094527363184,0,0,13.148649935592474,13.147881900357323,13.064994135012629,0.08288776539646547,0,0,0.0,0.0,0.0,0,0.0,140.0,8.473583166298873
-0.3677978515625,-0.26832112125102003,62.496680547395925,0.9869213948558517,0,0,0,0,0,0,0,0,0,0,0,0.0,0.039473684210526314,1.0,0.1,1.453643798828125,0.5159544381864938,0.7232789512989551,16.9589795622554,0.17543504586514777,,0.0,0.5612244897959183,0.3781094527363184,0,0,13.147429232467474,13.147947600842448,13.064761715670693,0.08318588522338867,0,0,0.0,0.0,0.0,0,0.0,140.0,8.473583166298873
-0.4096832275390625,-0.36409253621681914,62.49412725095258,0.9869213948558517,0,0,0,0,0,0,0,0,0,0,0,0.0,0.05263157894736842,1.0,0.13333333333333336,1.4564208984375,0.5166579118076645,0.7232789512989551,16.9589795622554,0.1757749878777993,,0.0,0.5612244897959183,0.3781094527363184,0,0,13.147734408248724,13.148022505171166,13.064529642197364,0.08349286302530001,0,0,0.0,0.0,0.0,0,0.0,140.0,8.473583166298873
-0.3050689697265625,-0.28687387762989425,62.49086846038777,0.9869213948558517,0,0,0,0,0,0,0,1,0,0,0,0.0,0.06578947368421054,1.0,0.16666666666666666,1.45648193359375,0.5169438770050512,0.7232789512989551,16.9589795622554,0.17611370983930139,,0.0,0.5612244897959183,0.3781094527363184,0,0,13.147734408248724,13.148094890391357,13.064297918029844,0.08379697241287234,0,0,0.0,0.0,0.0,0,0.0,140.0,8.473583166298873
-0.16375732421875,-0.16416758791385347,62.486914990111124,0.9869213948558517,0,0,0,0,0,0,0,0,0,0,0,0.0,0.07894736842105263,1.0,0.2,1.45660400390625,0.5168133507551503,0.7232789512989551,16.9589795622554,0.1764511715865599,,0.0,0.5612244897959183,0.3781094527363184,0,0,13.147124056686224,13.148153109284243,13.064066546613473,0.08408656272199189,0,0,0.0,0.0,0.0,0,0.0,140.0,8.473583166298873
-0.0603790283203125,-0.06309326428463385,62.482277695950735,0.9869213948558517,0,0,0,0,0,0,1,0,0,0,0,0.0,0.09210526315789473,1.0,0.23333333333333334,1.456024169921875,0.5162696429316443,0.7232789512989551,16.9589795622554,0.17678733339289873,,0.0,0.5612244897959183,0.3781094527363184,0,0,13.148039584029974,13.148185889379631,13.063835531401752,0.08435035802896704,0,0,0.0,0.0,0.0,0,0.0,140.0,8.473583166298873
-0.0043487548828125,-0.00535271616285885,62.476967472773865,0.9869213948558517,0,0,0,0,0,0,0,0,0,0,0,0.0,0.10526315789473684,1.0,0.2666666666666667,1.454132080078125,0.515318217915911,0.7232789512989551,16.9589795622554,0.1771221559741183,,0.0,0.5612244897959183,0.3781094527363184,0,0,13.148649935592474,13.148182626776393,13.063604875856369,0.08457775097098155,0,0,0.0,0.0,0.0,0,0.0,140.0,8.473583166298873
0.010986328125,0.017919418332070468,62.47099525213884,0.9869213948558517,0,0,0,0,0,0,0,0,0,0,0,0.0,0.11842105263157894,1.0,0.3,1.4537353515625,0.5139662653641728,0.7232789512989551,16.9589795622554,0.1774556004944055,,0.0,0.5612244897959183,0.3781094527363184,0,0,13.1469714687956,13.148133669442387,13.063374583447228,0.0847590860459915,0,0,0.0,0.0,0.0,0,0.0,140.0,8.473583166298873
0.0171966552734375,0.02680752781201843,62.46437199997928,0.9869213948558517,0,0,0,0,0,0,0,0,0,0,0,0.0,0.13157894736842107,1.0,0.3333333333333333,1.451629638671875,0.512222280009718,0.7232789512989551,16.9589795622554,0.1777876285720944,,0.0,0.5612244897959183,0.3781094527363184,0,0,13.147886996139349,13.14803058397817,13.063144657652467,0.08488592637640573,0,0,0.0,0.0,0.0,0,0.0,140.0,8.473583166298873
0.0248260498046875,0.03467832103874877,62.45710871432108,0.9869213948558517,0,0,0,0,0,0,0,0,0,0,0,0.0,0.14473684210526316,1.0,0.36666666666666664,1.449554443359375,0.5100958344318975,0.7232789512989551,16.9589795622554,0.17811820228527595,,0.0,0.5612244897959183,0.3781094527363184,0,0,13.147734408248724,13.147866399265041,13.062915101958481,0.08495129735713863,0,0,0.0,0.0,0.0,0,0.0,140.0,8.473583166298873
0.0346832275390625,0.04216123460067896,62.44921642303308,0.9869213948558517,0,0,0,0,0,0,0,0,0,0,0,0.0,0.15789473684210525,1.0,0.4,1.4471435546875,0.5075973850192463,0.7232789512989551,16.9589795622554,0.1784472841772564,,0.0,0.5612244897959183,0.3781094527363184,0,0,13.1481921719206,13.147635819926695,13.06268591985993,0.08494990011721779,0,0,0.0,0.0,0.0,0,0.0,140.0,8.473583166298873
0.0371246337890625,0.047287898207122044,62.440706181611866,0.9869213948558517,0,0,0,0,0,0,0,0,0,0,0,0.0,0.17105263157894732,1.0,0.43333333333333335,1.4443359375,0.5047380182806431,0.7232789512989551,16.9589795622554,0.1787748372618626,,0.0,0.5612244897959183,0.3781094527363184,0,0,13.148344759811224,13.147335402060943,13.062457114859747,0.08487828725152978,0,0,0.0,0.0,0.0,0,0.0,140.0,8.473583166298873
0.042755126953125,0.05093570764883084,62.43158907100147,0.9869213948558517,0,0,0,0,0,0,0,0,0,0,0,0.0,0.18421052631578946,1.0,0.4666666666666667,1.441070556640625,0.5015292191183314,0.7232789512989551,16.9589795622554,0.17910082502859426,,0.0,0.5612244897959183,0.3781094527363184,0,0,13.148344759811224,13.146963683400983,13.062228690469132,0.0847349929820645,0,0,0.0,0.0,0.0,0,0.0,140.0,8.473583166298873
0.04351806640625,0.05397061650880912,62.42187619544837,0.9869213948558517,0,0,0,0,0,0,0,0,0,0,0,0.0,0.19736842105263158,1.0,0.5,1.4378662109375,0.4979826621582579,0.7232789512989551,16.9589795622554,0.17942521144762108,,0.0,0.5612244897959183,0.3781094527363184,0,0,13.148039584029974,13.146521260229767,13.062000650207553,0.08452061007231014,0,0,0.0,0.0,0.0,0,0.0,140.0,8.473583166298873
0.0483856201171875,0.058238957414380156,62.41157868039264,0.9869213948558517,0,0,0,0,0,0,0,0,0,0,0,0.0,0.21052631578947367,1.0,0.5333333333333334,1.43341064453125,0.49410999708566977,0.7232789512989551,16.9589795622554,0.17974796097462523,,0.0,0.5612244897959183,0.3781094527363184,0,0,13.148344759811224,13.146010804189473,13.061772997602725,0.0842378066367272,0,0,0.0,0.0,0.0,0,0.0,140.0,8.473583166298873
0.0548553466796875,0.06532385069180918,62.40070767039539,0.9869213948558517,0,0,0,0,0,0,0,0,0,1,0,0.0,0.22368421052631576,1.0,0.5666666666666667,1.42938232421875,0.48992255773661947,0.7232789512989551,16.9589795622554,0.18006903855548745,,0.0,0.5612244897959183,0.3781094527363184,0,0,13.1469714687956,13.145437013631723,13.061545736190599,0.08389127749098745,0,0,0.0,0.0,0.0,0,0.0,140.0,8.473583166298873
0.0652923583984375,0.07422586839219208,62.389274327103365,0.9869213948558517,0,0,0,0,0,0,0,0,0,0,0,0.0,0.23684210526315788,1.0,0.6,1.425018310546875,0.4854309887124637,0.7232789512989551,16.9589795622554,0.18038840963081654,,0.0,0.5612244897959183,0.3781094527363184,0,0,13.1469714687956,13.144806496273116,13.061318869515324,0.08348762680753993,0,0,0.0,0.0,0.0,0,0.0,140.0,8.473583166298873
0.0734710693359375,0.08452160359091063,62.37728982725086,0.9869213948558517,0,0,0,0,0,0,0,0,0,0,0,0.0,0.25,1.0,0.6333333333333334,1.420654296875,0.4806449729097371,0.7232789512989551,16.9589795622554,0.18070604014032152,,0.0,0.5612244897959183,0.3781094527363184,0,0,13.1481921719206,13.144127582542497,13.061092401129217,0.08303518146291049,0,0,0.0,0.0,0.0,0,0.0,140.0,8.473583166298873
0.0877838134765625,0.0970159835836514,62.36476536069962,0.9869213948558517,0,0,0,0,0,0,0,0,0,0,0,0.0,0.26315789473684215,1.0,0.6666666666666666,1.415771484375,0.47557317101404795,0.7232789512989551,16.9589795622554,0.18102189652702574,,0.0,0.5612244897959183,0.3781094527363184,0,0,13.1481921719206,13.143410072063386,13.06086633459273,0.08254373752017352,0,0,0.0,0.0,0.0,0,0.0,140.0,8.473583166298873
0.10089111328125,0.11107198176408967,62.35171212851696,0.9869213948558517,0,0,0,0,0,0,0,0,0,0,0,0.0,0.2763157894736842,1.0,0.7,1.410675048828125,0.4702232773077628,0.7232789512989551,16.9589795622554,0.18133594574132253,,0.0,0.5612244897959183,0.3781094527363184,0,0,13.148955111373724,13.14266491936333,13.060640673474394,0.08202424593833707,0,0,0.0,0.0,0.0,0,0.0,140.0,8.473583166298873
0.1165313720703125,0.12458391470661456,62.338141341092594,0.9869213948558517,0,0,0,0,0,0,0,0,0,0,0,0.0,0.2894736842105263,1.0,0.7333333333333333,1.405609130859375,0.46460210157255477,0.7232789512989551,16.9589795622554,0.18164815524487227,,0.0,0.5612244897959183,0.3781094527363184,0,0,13.138273959029974,13.141903869520963,13.060415421350788,0.08148844821945943,0,0,0.0,0.0,0.0,0,0.0,140.0,8.473583166298873
0.1261444091796875,0.13614037547942062,62.324064216294424,0.9869213948558517,0,0,0,0,0,0,0,0,0,0,0,0.0,0.3026315789473684,1.0,0.7666666666666667,1.400177001953125,0.4587157177430094,0.7232789512989551,16.9589795622554,0.18195849301433978,,0.0,0.5612244897959183,0.3781094527363184,0,0,13.134611849654974,13.141139060054138,13.060190581806472,0.08094847829683191,0,0,0.0,0.0,0.0,0,0.0,140.0,8.473583166298873
0.1374664306640625,0.1439446742816442,62.30949197766374,0.9869213948558517,0,0,0,0,0,0,0,0,1,0,0,0.0,0.3157894736842105,1.0,0.8,1.39483642578125,0.45256974815273465,0.7232789512989551,16.9589795622554,0.18226692754497248,,0.0,0.5612244897959183,0.3781094527363184,0,0,13.136442904342474,13.140382610656774,13.059966158433948,0.0804164522718682,0,0,0.0,0.0,0.0,0,0.0,140.0,8.473583166298873
0.1363983154296875,0.14326280593571983,62.29443585264994,0.9869213948558517,0,0,0,0,0,0,0,0,0,0,0,0.0,0.3289473684210526,1.0,0.8333333333333334,1.388946533203125,0.44616978210047276,0.7232789512989551,16.9589795622554,0.18257342785401834,,0.0,0.5612244897959183,0.3781094527363184,0,0,13.136442904342474,13.139646225069626,13.059742154833604,0.07990407028494093,0,0,0.0,0.0,0.0,0,0.0,140.0,8.473583166298873
0.1244659423828125,0.12537059340479922,62.27890707088528,0.9869213948558517,0,0,0,0,0,0,0,0,0,0,0,0.0,0.34210526315789463,1.0,0.8666666666666667,1.382781982421875,0.43952185473645117,0.7232789512989551,16.9589795622554,0.18287796348398389,,0.0,0.5612244897959183,0.3781094527363184,0,0,13.1353747891081,13.138940827851156,13.059518574613664,0.07942225328628774,0,0,0.0,0.0,0.0,0,0.0,140.0,8.473583166298873
0.07781982421875,0.08366864747186936,62.262916862499615,0.9869213948558517,0,0,0,0,0,0,0,0,0,0,0,0.0,0.3552631578947369,1.0,0.9,1.376312255859375,0.4326328779725735,0.7232789512989551,16.9589795622554,0.18318050450573217,,0.0,0.5612244897959183,0.3781094527363184,0,0,13.136290316451849,13.138276253825785,13.059295421390134,0.07898083248432068,0,0,0.0,0.0,0.0,0,0.0,140.0,8.473583166298873
0.0162353515625,0.023264886232828248,62.24647645647559,0.9869213948558517,0,0,0,0,0,0,0,0,0,0,0,0.0,0.3684210526315789,1.0,0.9333333333333333,1.3697509765625,0.42551098759788464,0.7232789512989551,16.9589795622554,0.1834810215214199,,0.0,0.5612244897959183,0.3781094527363184,0,0,13.1353747891081,13.137661001705943,13.05907269878676,0.07858830296773074,0,0,0.0,0.0,0.0,0,0.0,140.0,8.473583166298873
-0.0555572509765625,-0.04153172104578548,62.22959707904436,0.9869213948558517,0,0,0,0,0,0,0,0,0,0,0,0.0,0.381578947368421,1.0,0.9666666666666667,1.36260986328125,0.41816584512679944,0.7232789512989551,16.9589795622554,0.1837794856672749,,0.0,0.5612244897959183,0.3781094527363184,0,0,13.136900668014349,13.137102057492859,13.058850410434983,0.07825164710630113,0,0,0.0,0.0,0.0,0,0.0,140.0,8.473583166298873
-0.10955810546875,-0.09708740518691841,62.21228995212197,0.9869213948558517,0,0,0,0,0,0,0,0,0,0,0,0.0,0.39473684210526316,1.0,1.0,1.355133056640625,0.4106088632644798,0.7232789512989551,16.9589795622554,0.18407586861621253,,0.0,0.5612244897959183,0.3781094527363184,0,0,13.135222201217474,13.136604788330658,13.0586285599739,0.07797622840505798,0,0,0.0,0.0,0.0,0,0.0,140.0,8.473583166298873
-0.1519622802734375,-0.13720705539513134,62.19456629178664,0.9869213948558517,0,0,0,0,0,0,0,0,0,0,1,0.0,0.40789473684210525,0.0,0.0,1.3475341796875,0.40285327445632485,0.7232789512989551,16.9589795622554,0.18437014258029247,,0.0,0.5612244897959183,0.3781094527363184,0,0,13.135832552779974,13.13617290358997,13.058407151050236,0.07776575258791218,0,0,0.0,0.0,0.0,0,0.0,140.0,8.473583166298873
-0.1735992431640625,-0.16013586724683077,62.17643730679698,0.9869213948558517,0,0,0,0,0,0,0,0,0,0,0,0.0,0.42105263157894735,0.0,0.014925373134328356,1.339508056640625,0.3949140491689019,0.7232789512989551,16.9589795622554,0.18466228031301557,,0.0,0.5612244897959183,0.3781094527363184,0,0,13.135069613326849,13.135808477062243,13.058186187318315,0.07762228979198582,0,0,0.0,0.0,0.0,0,0.0,140.0,8.473583166298873
-0.179595947265625,-0.16615989815212123,62.15791419715129,0.9869213948558517,0,0,0,0,0,0,0,0,0,0,0,0.0,0.43421052631578944,0.0,0.029850746268656712,1.33148193359375,0.38680772119410567,0.7232789512989551,16.9589795622554,0.18495225511145993,,0.0,0.5612244897959183,0.3781094527363184,0,0,13.135527376998724,13.135512022091282,13.057965672440037,0.07754634969918414,0,0,0.0,0.0,0.0,0,0.0,140.0,8.473583166298873
-0.170013427734375,-0.1602725407864013,62.139008152688056,0.9869213948558517,0,0,0,0,0,0,0,0,0,0,0,0.0,0.4473684210526315,0.0,0.04477611940298507,1.3236083984375,0.3785521868518059,0.7232789512989551,16.9589795622554,0.18524004081825823,,0.0,0.5612244897959183,0.3781094527363184,0,0,13.135832552779974,13.135282609998386,13.057745610084869,0.07753699996134165,0,0,0.0,0.0,0.0,0,0.0,140.0,8.473583166298873
-0.159576416015625,-0.14939360882771127,62.11973035172752,0.9869213948558517,0,0,0,0,0,0,0,0,0,0,0,0.0,0.4605263157894737,0.0,0.059701492537313425,1.315338134765625,0.3701665796083627,0.7232789512989551,16.9589795622554,0.18552561182341548,,0.0,0.5612244897959183,0.3781094527363184,0,0,13.136290316451849,13.13511802112134,13.05752600392983,0.07759201723921799,0,0,0.0,0.0,0.0,0,0.0,140.0,8.473583166298873
-0.146453857421875,-0.13725764266591312,62.10009195975459,0.9869213948558517,0,0,0,0,0,0,0,0,0,0,0,0.0,0.47368421052631576,0.0,0.07462686567164178,1.307342529296875,0.36167125829211905,0.7232789512989551,16.9589795622554,0.18580894306596812,,0.0,0.5612244897959183,0.3781094527363184,0,0,13.136442904342474,13.135014917237163,13.0573068576595,0.07770805962525604,0,0,0.0,0.0,0.0,0,0.0,140.0,8.473583166298873
-0.134521484375,-0.12381500197829014,62.08010412814299,0.9869213948558517,0,0,0,0,0,0,0,0,0,0,0,0.0,0.48684210526315785,0.0,0.08955223880597014,1.298309326171875,0.35308782002739586,0.7232789512989551,16.9589795622554,0.1860900100354843,,0.0,0.5612244897959183,0.3781094527363184,0,0,13.1359851406706,13.134969024233943,13.057088174966017,0.07788084931540415,0,0,0.0,0.0,0.0,0,0.0,140.0,8.473583166298873
-0.1176605224609375,-0.10932122124583425,62.05977799292055,0.9869213948558517,0,0,0,0,0,0,0,0,0,0,0,0.0,0.5,0.0,0.1044776119402985,1.2896728515625,0.34443897687840613,0.7232789512989551,16.9589795622554,0.18636878877340662,,0.0,0.5612244897959183,0.3781094527363184,0,0,13.136137728561224,13.134975314722569,13.056869959549095,0.07810535522083811,0,0,0.0,0.0,0.0,0,0.0,140.0,8.473583166298873
-0.105255126953125,-0.09521057547588614,62.039124673575834,0.9869213948558517,0,0,0,0,0,0,0,0,0,0,0,0.0,0.513157894736842,0.0,0.11940298507462685,1.2808837890625,0.3357482297583011,0.7232789512989551,16.9589795622554,0.1866452558742373,,0.0,0.5612244897959183,0.3781094527363184,0,0,13.1365954922331,13.135028181721916,13.056652215116033,0.07837596665313634,0,0,0.0,0.0,0.0,0,0.0,140.0,8.473583166298873
-0.09039306640625,-0.08233750481279986,62.01815527190587,0.9869213948558517,0,0,0,0,0,0,0,0,0,0,0,0.0,0.5263157894736843,0.0,0.13432835820895522,1.272247314453125,0.32703947281556334,0.7232789512989551,16.9589795622554,0.18691938848656706,,0.0,0.5612244897959183,0.3781094527363184,0,0,13.136748080123724,13.135121596361627,13.056434945381744,0.07868665102702616,0,0,0.0,0.0,0.0,0,0.0,140.0,8.473583166298873
-0.0809326171875,-0.06965291463821613,61.996880870905,0.9869213948558517,0,0,0,0,0,0,0,0,0,0,0,0.0,0.5394736842105263,0.0,0.14925373134328357,1.263458251953125,0.31833665394174326,0.7232789512989551,16.9589795622554,0.1871911643139474,,0.0,0.5612244897959183,0.3781094527363184,0,0,13.136900668014349,13.13524924453542,13.056218154068775,0.07903109051368112,0,0,0.0,0.0,0.0,0,0.0,140.0,8.473583166298873
-0.063873291015625,-0.056626508387519155,61.97531253369478,0.9869213948558517,0,0,0,0,0,0,0,0,0,0,0,0.0,0.5526315789473684,0.0,0.16417910447761191,1.25469970703125,0.30966346611651885,0.7232789512989551,16.9589795622554,0.18746056161560795,,0.0,0.5612244897959183,0.3781094527363184,0,0,13.135679964889349,13.13540463957338,13.056001844907339,0.07940279471297193,0,0,0.0,0.0,0.0,0,0.0,140.0,8.473583166298873
-0.05523681640625,-0.045959037359822756,61.95346130249478,0.9869213948558517,0,0,0,0,0,0,0,0,0,0,0,0.0,0.5657894736842105,0.0,0.1791044776119403,1.246246337890625,0.3010430304872924,0.7232789512989551,16.9589795622554,0.18772755920701917,,0.0,0.5612244897959183,0.3781094527363184,0,0,13.1353747891081,13.135581210265888,13.05578602163535,0.07979518867736629,0,0,0.0,0.0,0.0,0,0.0,140.0,8.473583166298873
-0.046783447265625,-0.03822265111522885,61.931338197634304,0.9869213948558517,0,0,0,0,0,0,0,0,0,0,0,0.0,0.5789473684210527,0.0,0.19402985074626866,1.237335205078125,0.29249758250689806,0.7232789512989551,16.9589795622554,0.18799213646030127,,0.0,0.5612244897959183,0.3781094527363184,0,0,13.135679964889349,13.135772365753201,13.055570687998461,0.08020167780146606,0,0,0.0,0.0,0.0,0,0.0,140.0,8.473583166298873
-0.041259765625,-0.03129250763902848,61.90895421660472,0.9869213948558517,0,0,0,0,0,0,0,0,0,0,0,0.0,0.5921052631578948,0.0,0.208955223880597,1.228515625,0.28404810253656537,0.7232789512989551,16.9589795622554,0.18825427330448077,,0.0,0.5612244897959183,0.3781094527363184,0,0,13.136748080123724,13.135971540519476,13.055355847750091,0.08061569281601005,0,0,0.0,0.0,0.0,0,0.0,140.0,8.473583166298873
-0.0329132080078125,-0.024779451622428582,61.8863203331524,0.9869213948558517,0,0,0,0,0,0,0,0,0,0,0,0.0,0.6052631578947368,0.0,0.22388059701492535,1.22076416015625,0.27571385631689,0.7232789512989551,16.9589795622554,0.188513950225595,,0.0,0.5612244897959183,0.3781094527363184,0,0,13.1359851406706,13.13617222376835,13.055141504651477,0.08103071916339727,0,0,0.0,0.0,0.0,0,0.0,140.0,8.473583166298873
-0.0289459228515625,-0.019839279658596623,61.86344749641211,0.9869213948558517,0,0,0,0,0,0,0,0,0,0,0,0.0,0.6184210526315789,0.0,0.2388059701492537,1.21270751953125,0.2675120493004538,0.7232789512989551,16.9589795622554,0.18877114826664582,,0.0,0.5612244897959183,0.3781094527363184,0,0,13.136137728561224,13.136367977945714,13.054927662471703,0.08144031552043327,0,0,0.0,0.0,0.0,0,0.0,140.0,8.473583166298873
-0.02532958984375,-0.01683433087936894,61.84034663008064,0.9869213948558517,0,0,0,0,0,0,0,0,0,0,0,0.0,0.631578947368421,0.0,0.2537313432835821,1.204742431640625,0.2594577367921001,0.7232789512989551,16.9589795622554,0.18902584902740344,,0.0,0.5612244897959183,0.3781094527363184,0,0,13.1365954922331,13.136552451436446,13.054714324987755,0.08183812649501165,0,0,0.0,0.0,0.0,0,0.0,140.0,8.473583166298873
-0.0243682861328125,-0.015051199419287736,61.81702863163046,0.9869213948558517,0,0,0,0,0,0,0,0,0,0,0,0.0,0.6447368421052632,0.0,0.26865671641791045,1.196624755859375,0.25156378742201646,0.7232789512989551,16.9589795622554,0.1892780346640623,,0.0,0.5612244897959183,0.3781094527363184,0,0,13.135069613326849,13.136719390646991,13.054501495984548,0.0822178947086635,0,0,0.0,0.0,0.0,0,0.0,140.0,8.473583166298873
-0.0226287841796875,-0.014562306744013955,61.79350437156334,0.9869213948558517,0,0,0,0,0,0,0,0,0,0,0,0.0,0.6578947368421052,0.0,0.2835820895522388,1.18902587890625,0.24384069988967738,0.7232789512989551,16.9589795622554,0.18952768788874882,,0.0,0.5612244897959183,0.3781094527363184,0,0,13.136900668014349,13.13686265669567,13.054289179254965,0.08257347748682388,0,0,0.0,0.0,0.0,0,0.0,140.0,8.473583166298873
-0.02496337890625,-0.014719096294217481,61.76978469270361,0.9869213948558517,0,0,0,0,0,0,0,0,0,0,0,0.0,0.6710526315789472,0.0,0.29850746268656714,1.181884765625,0.2362963606097461,0.7232789512989551,16.9589795622554,0.18977479196888358,,0.0,0.5612244897959183,0.3781094527363184,0,0,13.135832552779974,13.136976251611202,13.054077378599898,0.0828988730573211,0,0,0.0,0.0,0.0,0,0.0,140.0,8.473583166298873
-0.0225067138671875,-0.014823420269085083,61.74588040953095,0.9869213948558517,0,0,0,0,0,0,0,0,0,0,0,0.0,0.6842105263157893,0.0,0.31343283582089554,1.174652099609375,0.2289359285405952,0.7232789512989551,16.9589795622554,0.1900193307263981,,0.0,0.5612244897959183,0.3781094527363184,0,0,13.136137728561224,13.137054358236243,13.05386609782828,0.08318826045387773,0,0,0.0,0.0,0.0,0,0.0,140.0,8.473583166298873
-0.0253448486328125,-0.014470862445844846,61.72180230755239,0.9869213948558517,0,0,0,0,0,0,0,0,0,0,0,0.0,0.6973684210526316,0.0,0.32835820895522383,1.168060302734375,0.2217618836541561,0.7232789512989551,16.9589795622554,0.1902612885368082,,0.0,0.5612244897959183,0.3781094527363184,0,0,13.136137728561224,13.1370913970227,13.05365534075712,0.0834360563113967,0,0,0.0,0.0,0.0,0,0.0,140.0,8.473583166298873
-0.0205535888671875,-0.012124041468807956,61.69756114271336,0.9869213948558517,0,0,0,0,0,0,0,0,0,0,0,0.0,0.7105263157894738,0.0,0.34328358208955223,1.1614990234375,0.21477419175014512,0.7232789512989551,16.9589795622554,0.19050065032814517,,0.0,0.5612244897959183,0.3781094527363184,0,0,13.135832552779974,13.137082101699917,13.053445111211525,0.08363699053410348,0,0,0.0,0.0,0.0,0,0.0,140.0,8.473583166298873
-0.0177459716796875,-0.009221039871500188,61.673167640847595,0.9869213948558517,0,0,0,0,0,0,0,0,0,0,0,0.0,0.7236842105263157,0.0,0.3582089552238806,1.154998779296875,0.20797056166999173,0.7232789512989551,16.9589795622554,0.19073740157974622,,0.0,0.5612244897959183,0.3781094527363184,0,0,13.135527376998724,13.137021614435481,13.053235413024733,0.08378620145635587,0,0,0.0,0.0,0.0,0,0.0,140.0,8.473583166298873
-0.0163726806640625,-0.008424458099355426,61.64863249716546,0.9869213948558517,0,0,0,0,0,0,0,0,0,0,0,0.0,0.7368421052631579,0.0,0.373134328358209,1.14892578125,0.2013467349866186,0.7232789512989551,16.9589795622554,0.1909715283209056,,0.0,0.5612244897959183,0.3781094527363184,0,0,13.135832552779974,13.136905599567466,13.053026250038123,0.08387934957484983,0,0,0.0,0.0,0.0,0,0.0,140.0,8.473583166298873
-0.0185699462890625,-0.007994736110984495,61.62396637578069,0.9869213948558517,0,0,0,0,0,0,0,0,0,0,0,0.0,0.75,0.0,0.3880597014925373,1.14239501953125,0.19489673946313962,0.7232789512989551,16.9589795622554,0.19120301712938786,,0.0,0.5612244897959183,0.3781094527363184,0,0,13.1359851406706,13.136730373249081,13.05281762610123,0.08391274719325642,0,0,0.0,0.0,0.0,0,0.0,140.0,8.473583166298873
-0.0136566162109375,-0.007210838261027152,61.59917990927515,0.9869213948558517,0,0,0,0,0,0,0,0,0,0,0,0.0,0.763157894736842,0.0,0.40298507462686567,1.1365966796875,0.18861306280522994,0.7232789512989551,16.9589795622554,0.1914318551298051,,0.0,0.5612244897959183,0.3781094527363184,0,0,13.136137728561224,13.136493044461723,13.052609545071759,0.08388349943526684,0,0,0.0,0.0,0.0,0,0.0,140.0,8.473583166298873
-0.017974853515625,-0.007747359081652734,61.574283698301315,0.9869213948558517,0,0,0,0,0,0,0,0,0,0,0,0.0,0.7763157894736842,0.0,0.417910447761194,1.13037109375,0.18248673739823262,0.7232789512989551,16.9589795622554,0.19165802999185938,,0.0,0.5612244897959183,0.3781094527363184,0,0,13.1372058437956,13.136191660987471,13.052402010815584,0.0837896502170839,0,0,0.0,0.0,0.0,0,0.0,140.0,8.473583166298873
-0.0162200927734375,-0.007517601964535799,61.54928831122227,0.9869213948558517,0,0,0,0,0,0,0,0,0,0,0,0.0,0.7894736842105263,0.0,0.43283582089552236,1.124847412109375,0.1765073789233246,0.7232789512989551,16.9589795622554,0.19188152992845237,,0.0,0.5612244897959183,0.3781094527363184,0,0,13.134611849654974,13.13582535235682,13.052195027206752,0.08363032519515905,0,0,0.0,0.0,0.0,0,0.0,140.0,8.473583166298873
-0.014312744140625,-0.004926966680676119,61.524204283788976,0.9869213948558517,0,0,0,0,0,0,0,0,0,0,0,0.0,0.8026315789473684,0.0,0.4477611940298507,1.119293212890625,0.17066324184160708,0.7232789512989551,16.9589795622554,0.19210234369366366,,0.0,0.5612244897959183,0.3781094527363184,0,0,13.135527376998724,13.135394460728376,13.051988598127464,0.08340586264589664,0,0,0.0,0.0,0.0,0,0.0,140.0,8.473583166298873
-0.00933837890625,-0.002615167466444291,61.49904211885443,0.9869213948558517,0,0,0,0,0,0,0,0,0,0,0,0.0,0.8157894736842105,0.0,0.4626865671641791,1.113922119140625,0.16494134954765688,0.7232789512989551,16.9589795622554,0.19232046058059968,,0.0,0.5612244897959183,0.3781094527363184,0,0,13.1359851406706,13.134900650116139,13.051782727468067,0.08311792269295078,0,0,0.0,0.0,0.0,0,0.0,140.0,8.473583166298873
-0.0117645263671875,-0.0020012160018873892,61.473812286124534,0.9869213948558517,0,0,0,0,0,0,0,0,0,0,0,0.0,0.8289473684210525,0.0,0.4776119402985074,1.108642578125,0.15932769236309335,0.7232789512989551,16.9589795622554,0.19253587041911494,,0.0,0.5612244897959183,0.3781094527363184,0,0,13.135679964889349,13.134346984162697,13.05157741912703,0.08276956508044186,0,0,0.0,0.0,0.0,0,0.0,140.0,8.473583166298873
-0.009246826171875,-0.0015095872499045725,61.448525221945225,0.9869213948558517,0,0,0,0,0,0,0,0,0,0,0,0.0,0.8421052631578947,0.0,0.4925373134328358,1.10357666015625,0.15380745137713575,0.7232789512989551,16.9589795622554,0.1927485635734071,,0.0,0.5612244897959183,0.3781094527363184,0,0,13.135832552779974,13.133737962691338,13.051372677010916,0.08236528572509633,0,0,0.0,0.0,0.0,0,0.0,140.0,8.473583166298873
-0.00970458984375,3.469991025582776e-05,61.42319132912587,0.9869213948558517,0,0,0,0,0,0,0,0,0,0,0,0.0,0.8552631578947368,0.0,0.5074626865671642,1.09857177734375,0.14836525739669298,0.7232789512989551,16.9589795622554,0.19295853093948867,,0.0,0.5612244897959183,0.3781094527363184,0,0,13.1378161953581,13.133079507816428,13.051168505034344,0.08191100282665795,0,0,0.0,0.0,0.0,0,0.0,140.0,8.473583166298873
-0.00494384765625,0.0020099034174310177,61.397820976798265,0.9869213948558517,0,0,0,0,0,0,0,0,0,0,0,0.0,0.8684210526315789,0.0,0.5223880597014925,1.093475341796875,0.14298548830049593,0.7232789512989551,16.9589795622554,0.19316576394253598,,0.0,0.5612244897959183,0.3781094527363184,0,0,13.135527376998724,13.132378891867075,13.050964907119953,0.08141398479159756,0,0,0.0,0.0,0.0,0,0.0,140.0,8.473583166298873
-0.00592041015625,0.0035425103556646627,61.37242450031121,0.9869213948558517,0,0,0,0,0,0,0,0,0,0,0,0.0,0.881578947368421,0.0,0.5373134328358209,1.088836669921875,0.13765257903291966,0.7232789512989551,16.9589795622554,0.1933702545341186,,0.0,0.5612244897959183,0.3781094527363184,0,0,13.1359851406706,13.13164460211088,13.050761887198359,0.0808827149568898,0,0,0.0,0.0,0.0,0,0.0,140.0,8.473583166298873
-0.002410888671875,0.00501785700697222,61.3470122011603,0.9869213948558517,0,0,0,0,0,0,0,0,0,0,0,0.0,0.894736842105263,0.0,0.5522388059701493,1.08380126953125,0.13235135744928464,0.7232789512989551,16.9589795622554,0.19357199518931012,,0.0,0.5612244897959183,0.3781094527363184,0,0,13.137663607467474,13.130886141385325,13.050559449208109,0.0803266922214781,0,0,0.0,0.0,0.0,0,0.0,140.0,8.473583166298873
-0.0023651123046875,0.006176594852552777,61.32159434695251,0.9869213948558517,0,0,0,0,0,0,0,0,0,0,0,0.0,0.9078947368421052,0.0,0.5671641791044776,1.078765869140625,0.1270673871993821,0.7232789512989551,16.9589795622554,0.19377097890368325,,0.0,0.5612244897959183,0.3781094527363184,0,0,13.1329333828581,13.130113769162394,13.050357597095632,0.0797561721109205,0,0,0.0,0.0,0.0,0,0.0,140.0,8.473583166298873
-0.0011444091796875,0.006004064290171012,61.29618117140556,0.9869213948558517,0,0,0,0,0,0,0,0,0,0,0,0.0,0.9210526315789473,0.0,0.582089552238806,1.0738525390625,0.12178723230816334,0.7232789512989551,16.9589795622554,0.1939671991901905,,0.0,0.5612244897959183,0.3781094527363184,0,0,13.123930697311224,13.129338193985392,13.050156334815176,0.0791818592142714,0,0,0.0,0.0,0.0,0,0.0,140.0,8.473583166298873
-0.0041351318359375,0.005606576311994583,61.27078287438138,0.9869213948558517,0,0,1,0,0,0,0,0,0,0,0,0.0,0.9342105263157895,0.0,0.5970149253731343,1.06878662109375,0.11649863944207055,0.7232789512989551,16.9589795622554,0.19416065007593333,,0.0,0.5612244897959183,0.3781094527363184,0,0,13.1225574062956,13.128570234847471,13.049955666328758,0.07861456856266574,0,0,0.0,0.0,0.0,0,0.0,140.0,8.473583166298873
-0.0007781982421875,0.006899156586389607,61.245409621953705,0.9869213948558517,0,0,0,0,0,0,0,0,0,0,0,0.0,0.9473684210526315,0.0,0.6119402985074628,1.063629150390625,0.11119068527176956,0.7232789512989551,16.9589795622554,0.19435132609882094,,0.0,0.5612244897959183,0.3781094527363184,0,0,13.123930697311224,13.127820474182165,13.04975559560611,0.07806487861990612,0,0,0.0,0.0,0.0,0,0.0,140.0,8.473583166298873
0.0008544921875,0.00962626683639382,61.22007154650934,0.9869213948558517,0,0,0,0,0,0,0,0,0,0,0,0.0,0.9605263157894737,0.0,0.6268656716417911,1.05877685546875,0.10585389404290993,0.7232789512989551,16.9589795622554,0.19453922230412182,,0.0,0.5612244897959183,0.3781094527363184,0,0,13.123472933639349,13.127098926554345,13.04955612662462,0.07754279997347535,0,0,0.0,0.0,0.0,0,0.0,140.0,8.473583166298873
0.0053253173828125,0.012292590917350316,61.19477874688289,0.9869213948558517,0,0,0,0,0,0,0,0,0,0,0,0.0,0.9736842105263157,0.0,0.6417910447761195,1.053466796875,0.1004803540128868,0.7232789512989551,16.9589795622554,0.19472433424090993,,0.0,0.5612244897959183,0.3781094527363184,0,0,13.124235873092474,13.12641474414503,13.049357263369279,0.07705748081939993,0,0,0.0,0.0,0.0,0,0.0,140.0,8.473583166298873
0.0055999755859375,0.014852396336025723,61.16954128852451,0.9869213948558517,0,0,0,0,0,0,0,0,0,0,0,0.0,0.9868421052631579,0.0,0.6567164179104477,1.04840087890625,0.09506384374372193,0.7232789512989551,16.9589795622554,0.19490665795840703,,0.0,0.5612244897959183,0.3781094527363184,0,0,13.123625521529974,13.12577597422573,13.04915900983264,0.07661696443663167,0,0,0.0,0.0,0.0,0,0.0,140.0,8.473583166298873
0.0110015869140625,0.017710083516033367,61.14436920370063,0.9869213948558517,0,0,0,0,0,0,0,0,0,0,0,0.0,1.0,0.0,0.6716417910447761,1.04290771484375,0.08959991813584713,0.7232789512989551,16.9589795622554,0.1950861900022247,,0.0,0.5612244897959183,0.3781094527363184,0,0,13.124083285201849,13.125189377357234,13.048961370014766,0.07622800738590552,0,0,0.0,0.0,0.0,0,0.0,140.0,8.473583166298873
0.01153564453125,0.019858613483518858,61.11927249172709,0.9869213948558517,0,1,0,0,0,0,0,0,0,0,0,1.0,0.0,0.0,0.6865671641791045,1.037567138671875,0.08408592040273877,0.7232789512989551,16.9589795622554,0.19526292741050724,,0.0,0.5612244897959183,0.3781094527363184,0,0,13.1225574062956,13.124660309478482,13.048764347923179,0.0758959615986387,0,0,0.0,0.0,0.0,0,0.0,140.0,8.473583166298873
0.0138397216796875,0.020145987313076957,61.09426111923466,0.9869213948558517,0,0,0,0,0,0,0,0,0,0,0,1.0,0.047619047619047616,0.0,0.7014925373134329,1.032135009765625,0.0785209321018397,0.7232789512989551,16.9589795622554,0.1954368677099783,,0.0,0.5612244897959183,0.3781094527363184,0,0,13.123472933639349,13.124192666671926,13.04856794757283,0.0756247191423319,0,0,0.0,0.0,0.0,0,0.0,140.0,8.473583166298873
0.0100250244140625,0.018129738271520188,61.06934502046648,0.9869213948558517,0,0,0,1,0,0,0,0,0,0,0,1.0,0.09523809523809523,0.0,0.7164179104477612,1.02630615234375,0.07290568049107389,0.7232789512989551,16.9589795622554,0.19560800891189337,,0.0,0.5612244897959183,0.3781094527363184,0,0,13.124083285201849,13.123788887965233,13.048372172986069,0.07541671502230371,0,0,0.0,0.0,0.0,0,0.0,140.0,8.473583166298873
0.0074615478515625,0.016236050429145825,61.04453409760723,0.9869213948558517,0,0,0,0,0,0,0,0,0,0,0,1.0,0.14285714285714285,0.0,0.7313432835820896,1.020660400390625,0.06724237043111397,0.7232789512989551,16.9589795622554,0.1957763495079007,,0.0,0.5612244897959183,0.3781094527363184,0,0,13.124235873092474,13.123450008810142,13.048177028192612,0.07527298066057178,0,0,0.0,0.0,0.0,0,0.0,140.0,8.473583166298873
0.009002685546875,0.01868019929525173,61.01983822114379,0.9869213948558517,0,0,0,0,0,0,0,0,0,0,0,1.0,0.19047619047619047,0.0,0.746268656716418,1.01519775390625,0.06153444729804286,0.7232789512989551,16.9589795622554,0.19594188846581284,,0.0,0.5612244897959183,0.3781094527363184,0,0,13.123930697311224,13.123175755868335,13.047982517229523,0.07519323868175301,0,0,0.0,0.0,0.0,0,0.0,140.0,8.473583166298873
0.0184326171875,0.02367693996628627,60.99526723025699,0.9869213948558517,0,0,0,0,0,0,0,0,0,0,0,1.0,0.23809523809523808,0.0,0.7611940298507462,1.0093994140625,0.05578640055713638,0.7232789512989551,16.9589795622554,0.19610462522529135,,0.0,0.5612244897959183,0.3781094527363184,0,0,13.123320345748724,13.122964672627477,13.047788644141207,0.07517602852911129,0,0,0.0,0.0,0.0,0,0.0,140.0,8.473583166298873
0.0181884765625,0.026236680189073762,60.97083093324435,0.9869213948558517,0,0,0,0,0,0,0,0,0,0,0,1.0,0.2857142857142857,0.0,0.7761194029850746,1.00347900390625,0.050003615850094676,0.7232789512989551,16.9589795622554,0.19626455969344658,,0.0,0.5612244897959183,0.3781094527363184,0,0,13.123472933639349,13.122814265237125,13.047595412979396,0.07521885230047204,0,0,0.0,0.0,0.0,0,0.0,140.0,8.473583166298873
0.0196533203125,0.028465162948581466,60.94653910797351,0.9869213948558517,0,0,0,0,0,0,0,0,0,0,0,1.0,0.3333333333333333,0.0,0.791044776119403,0.998321533203125,0.04419221146398783,0.7232789512989551,16.9589795622554,0.196421692240356,,0.0,0.5612244897959183,0.3781094527363184,0,0,13.1243884609831,13.122721158544461,13.047402827803143,0.07531833078396089,0,0,0.0,0.0,0.0,0,0.0,140.0,8.473583166298873
0.0260467529296875,0.035073567759999674,60.92240150236601,0.9869213948558517,0,0,0,0,0,0,0,0,0,0,0,1.0,0.38095238095238093,0.0,0.8059701492537313,0.991973876953125,0.03835891243582243,0.7232789512989551,16.9589795622554,0.1965760236945024,,0.0,0.5612244897959183,0.3781094527363184,0,0,13.124235873092474,13.122681253269192,13.047210892678837,0.07547036063289901,0,0,0.0,0.0,0.0,0,0.0,140.0,8.473583166298873
0.03839111328125,0.03969137685661785,60.898427834911296,0.9869213948558517,0,0,0,0,0,0,0,0,0,0,0,1.0,0.42857142857142855,0.0,0.8208955223880596,0.986175537109375,0.032510923473167516,0.7232789512989551,16.9589795622554,0.1967275553381356,,0.0,0.5612244897959183,0.3781094527363184,0,0,13.123015169967474,13.122689876449963,13.047019611680204,0.07567026481220335,0,0,0.0,0.0,0.0,0,0.0,140.0,8.473583166298873
0.02593994140625,0.031893047533331526,60.874627795210706,0.9869213948558517,0,0,0,0,0,0,0,0,0,0,0,1.0,0.47619047619047616,0.0,0.835820895522388,0.9805908203125,0.02665569283510047,0.7232789512989551,16.9589795622554,0.19687628890255912,,0.0,0.5612244897959183,0.3781094527363184,0,0,13.1231677578581,13.122741918784326,13.04682898888832,0.07591292993834872,0,0,0.0,0.0,0.0,0,0.0,140.0,8.473583166298873
0.0074615478515625,0.016275313155606885,60.8510110445511,0.9869213948558517,0,0,0,0,0,0,0,0,0,0,0,1.0,0.5238095238095237,0.0,0.8507462686567164,0.974822998046875,0.020800691335907243,0.7232789512989551,16.9589795622554,0.1970222265633447,,0.0,0.5612244897959183,0.3781094527363184,0,0,13.124235873092474,13.122831954214153,13.04663902839164,0.07619292586475687,0,0,0.0,0.0,0.0,0,0.0,140.0,8.473583166298873
-0.0054473876953125,0.003984740519502621,60.82758721650809,0.9869213948558517,0,0,0,0,0,0,0,0,0,0,0,1.0,0.5714285714285714,0.0,0.8656716417910447,0.969512939453125,0.014953350791959738,0.7232789512989551,16.9589795622554,0.1971653709354775,,0.0,0.5612244897959183,0.3781094527363184,0,0,13.124846224654974,13.122954338813706,13.04644973428601,0.07650460456984334,0,0,0.0,0.0,0.0,0,0.0,140.0,8.473583166298873
-0.010162353515625,-0.0025944649821278308,60.804365917578494,0.9869213948558517,0,0,0,0,0,0,0,0,0,0,0,1.0,0.6190476190476191,0.0,0.880597014925373,0.963836669921875,0.00912113494621393,0.7232789512989551,16.9589795622554,0.19730572506843413,,0.0,0.5612244897959183,0.3781094527363184,0,0,13.1237781094206,13.123103287574612,13.046261110674706,0.07684217694196108,0,0,0.0,0.0,0.0,0,0.0,140.0,8.473583166298873
-0.0139923095703125,-0.0053162284087022475,60.78135672784193,0.9869213948558517,0,0,0,0,0,0,0,0,0,0,0,1.0,0.6666666666666666,0.0,0.8955223880597014,0.957855224609375,0.003311635857943779,0.7232789512989551,16.9589795622554,0.1974432924411965,,0.0,0.5612244897959183,0.3781094527363184,0,0,13.123320345748724,13.123272929228476,13.046073161668449,0.07719976760198827,0,0,0.0,0.0,0.0,0,0.0,140.0,8.473583166298873
-0.012359619140625,-0.005622489307700777,60.758569201651355,0.9869213948558517,0,0,0,0,0,0,0,0,0,0,0,1.0,0.7142857142857142,0.0,0.9104477611940298,0.952484130859375,-0.00246743413990147,0.7232789512989551,16.9589795622554,0.1975780769572032,,0.0,0.5612244897959183,0.3781094527363184,0,0,13.1237781094206,13.123457340974708,13.045885891385451,0.07757144963112331,0,0,0.0,0.0,0.0,0,0.0,140.0,8.473583166298873
-0.01287841796875,-0.004962818412945165,60.736012868352205,0.9869213948558517,0,0,0,0,0,1,0,0,0,0,0,1.0,0.7619047619047619,0.0,0.9253731343283582,0.947174072265625,-0.008208302485628594,0.7232789512989551,16.9589795622554,0.19771008293924222,,0.0,0.5612244897959183,0.3781094527363184,0,0,13.123930697311224,13.123650566696572,13.045699303951446,0.07795126278690107,0,0,0.0,0.0,0.0,0,0.0,140.0,8.473583166298873
-0.0106964111328125,-0.009509383460434888,60.71369723303019,0.9869213948558517,0,0,0,0,0,0,0,0,0,0,0,1.0,0.8095238095238095,0.0,0.9402985074626865,0.94158935546875,-0.013903079861360274,0.7232789512989551,16.9589795622554,0.19783931512428643,,0.0,0.5612244897959183,0.3781094527363184,0,0,13.1231677578581,13.123846623583578,13.045513403499724,0.07833322012553756,0,0,0.0,0.0,0.0,0,0.0,140.0,8.473583166298873
-0.0325927734375,-0.027406552451818195,60.69163177728749,0.9869213948558517,0,0,0,0,0,0,0,0,0,0,0,1.0,0.8571428571428571,0.0,0.9552238805970148,0.936248779296875,-0.019543626156368524,0.7232789512989551,16.9589795622554,0.19796577865827505,,0.0,0.5612244897959183,0.3781094527363184,0,0,13.123015169967474,13.124039502875776,13.045328194171166,0.07871130874620472,0,0,0.0,0.0,0.0,0,0.0,140.0,8.473583166298873
-0.06243896484375,-0.030730732510038498,60.66982596004712,0.9869213948558517,0,0,0,0,0,0,0,0,0,0,0,1.0,0.9047619047619047,0.0,0.9701492537313434,0.9302978515625,-0.025121503596786054,0.7232789512989551,16.9589795622554,0.19808947909084348,,0.0,0.5612244897959183,0.3781094527363184,0,0,13.123930697311224,13.12422317075616,13.045143680114284,0.07907949068338375,0,0,0.0,0.0,0.0,0,0.0,140.0,8.473583166298873
0.0059814453125,0.04912541382712192,60.64828921838541,0.9869213948558517,0,0,0,0,1,0,0,0,0,0,0,1.0,0.9523809523809523,0.0,0.9850746268656716,0.9251708984375,-0.03062808384141104,0.7232789512989551,16.9589795622554,0.1982104223700043,,0.0,0.5612244897959183,0.3781094527363184,0,0,13.123930697311224,13.124391575268847,13.044959865485257,0.0794317098250141,0,0,0.0,0.0,0.0,0,0.0,140.0,8.473583166298873
0.218536376953125,0.24913775256111942,60.6270309683925,0.9869213948558517,0,0,0,0,0,0,0,0,0,0,0,1.0,1.0,0.0,1.0,0.920196533203125,-0.03605469357096462,0.7232789512989551,16.9589795622554,0.19832861483678174,,0.0,0.5612244897959183,0.3781094527363184,0,0,13.123472933639349,13.124538664553526,13.044776754447964,0.07976191014690046,0,0,0.0,0.0,0.0,0,0.0,140.0,8.473583166298873
0.525177001953125,0.46725932083274696,60.60606060606061,0.9672510886522304,1,0,0,0,0,0,0,0,0,0,0,0.0,0.0,1.0,0.0,0.914825439453125,-0.041392624006211354,0.7232789512989551,16.9589795622554,0.19844406321980246,,0.0,0.5612244897959183,0.3781094527363184,0,0,13.123472933639349,13.1246584208053,13.044594351174025,0.08006406967252958,0,0,0.0,0.0,0.0,0,0.0,140.0,8.473583166298873
0.5719451904296875,0.4382351462834385,60.584959070350855,0.9672510886522304,0,0,0,0,0,0,0,0,0,0,0,0.0,0.01149425287356322,1.0,0.03333333333333334,0.909576416015625,-0.046633076179195654,0.7232789512989551,16.9589795622554,0.19855677462984517,,0.0,0.5612244897959183,0.3781094527363184,0,0,13.1231677578581,13.124744913342692,13.044412659842823,0.08033225354103848,0,0,0.0,0.0,0.0,0,0.0,140.0,8.473583166298873
0.0557861328125,0.09065409644920623,60.563311898079775,0.9672510886522304,0,0,0,0,0,0,0,0,0,0,0,0.0,0.02298850574712644,1.0,0.06666666666666668,0.90460205078125,-0.05176722559488149,0.7232789512989551,16.9589795622554,0.1986667565543515,,0.0,0.5612244897959183,0.3781094527363184,0,0,13.124693636764349,13.124792372967736,13.044231684641543,0.08056068836727776,0,0,0.0,0.0,0.0,0,0.0,140.0,8.473583166298873
-0.348876953125,-0.25393918273082744,60.541135356587695,0.9672510886522304,0,0,0,0,0,0,0,0,0,0,0,0.0,0.034482758620689655,1.0,0.1,0.899200439453125,-0.056786405225644265,0.7232789512989551,16.9589795622554,0.19877401685190108,,0.0,0.5612244897959183,0.3781094527363184,0,0,13.122709994186224,13.124795288330082,13.044051429765194,0.08074385860589164,0,0,0.0,0.0,0.0,0,0.0,140.0,8.473583166298873
-0.4016571044921875,-0.34754359549255204,60.5184456964445,0.9672510886522304,0,0,0,0,0,0,0,0,0,0,0,0.0,0.04597701149425288,1.0,0.13333333333333336,0.894378662109375,-0.0616823690258089,0.7232789512989551,16.9589795622554,0.19887856374665305,,0.0,0.5612244897959183,0.3781094527363184,0,0,13.123930697311224,13.124748523301648,13.043871899416624,0.08087662392594558,0,0,0.0,0.0,0.0,0,0.0,140.0,8.473583166298873
-0.2657470703125,-0.2561991853199381,60.495259148741624,0.9672510886522304,0,0,0,0,0,0,0,1,0,0,0,0.0,0.05747126436781609,1.0,0.16666666666666666,0.890106201171875,-0.06644757723164989,0.7232789512989551,16.9589795622554,0.19898040582275675,,0.0,0.5612244897959183,0.3781094527363184,0,0,13.1243884609831,13.12464745257489,13.04369309780655,0.08095435480918264,0,0,0.0,0.0,0.0,0,0.0,140.0,8.473583166298873
-0.1193084716796875,-0.12562739369283593,60.47159192247346,0.9672510886522304,0,0,0,0,0,0,0,0,0,0,0,0.0,0.06896551724137931,1.0,0.2,0.88555908203125,-0.07107533028737444,0.7232789512989551,16.9589795622554,0.1990795520187346,,0.0,0.5612244897959183,0.3781094527363184,0,0,13.123930697311224,13.124488110914577,13.043515029153559,0.08097308180177852,0,0,0.0,0.0,0.0,0,0.0,140.0,8.473583166298873
-0.0257110595703125,-0.03484968186898453,60.44746020200819,0.9672510886522304,0,0,0,0,0,0,1,0,0,0,0,0.0,0.08045977011494254,1.0,0.23333333333333334,0.88104248046875,-0.07555974862802331,0.7232789512989551,16.9589795622554,0.19917601162183882,,0.0,0.5612244897959183,0.3781094527363184,0,0,13.1243884609831,13.124267349812511,13.043337697684128,0.08092965216906911,0,0,0.0,0.0,0.0,0,0.0,140.0,8.473583166298873
0.0038604736328125,0.006726897873875464,60.422880144648104,0.9672510886522304,0,0,0,0,0,0,0,0,0,0,0,0.0,0.09195402298850576,1.0,0.2666666666666667,0.876708984375,-0.07989580677712688,0.7232789512989551,16.9589795622554,0.19926979426238536,,0.0,0.5612244897959183,0.3781094527363184,0,0,13.124846224654974,13.123982993899387,13.043161107632612,0.08082188630738896,0,0,0.0,0.0,0.0,0,0.0,140.0,8.473583166298873
0.01751708984375,0.02220032728761894,60.397867878279285,0.9672510886522304,0,0,0,0,0,0,0,0,0,0,0,0.0,0.10344827586206896,1.0,0.3,0.872406005859375,-0.08407950610964392,0.7232789512989551,16.9589795622554,0.19936090990806707,,0.0,0.5612244897959183,0.3781094527363184,0,0,13.124235873092474,13.123633988543556,13.042985263241247,0.0806487253428535,0,0,0.0,0.0,0.0,0,0.0,140.0,8.473583166298873
0.022613525390625,0.030430458143394876,60.37243949911056,0.9672510886522304,0,0,0,0,0,0,0,0,0,0,0,0.0,0.11494252873563218,1.0,0.3333333333333333,0.8690185546875,-0.08810807336360528,0.7232789512989551,16.9589795622554,0.1994493688582494,,0.0,0.5612244897959183,0.3781094527363184,0,0,13.123625521529974,13.123220529702952,13.042810168760141,0.08041036098328465,0,0,0.0,0.0,0.0,0,0.0,140.0,8.473583166298873
0.031768798828125,0.03579655012799032,60.34661106950164,0.9672510886522304,0,0,0,0,0,0,0,0,0,0,0,0.0,0.12643678160919541,1.0,0.36666666666666664,0.865081787109375,-0.09198003424520787,0.7232789512989551,16.9589795622554,0.1995351817382502,,0.0,0.5612244897959183,0.3781094527363184,0,0,13.122709994186224,13.12274416728628,13.042635828447251,0.08010833887943122,0,0,0.0,0.0,0.0,0,0.0,140.0,8.473583166298873
0.0299072265625,0.038916570217073246,60.32039861588011,0.9672510886522304,0,0,0,0,0,0,0,0,0,0,0,0.0,0.13793103448275862,1.0,0.4,0.862152099609375,-0.09569512423468492,0.7232789512989551,16.9589795622554,0.19961835949360673,,0.0,0.5612244897959183,0.3781094527363184,0,0,13.123472933639349,13.122207873883568,13.042462246568368,0.07974562735552806,0,0,0.0,0.0,0.0,0,0.0,140.0,8.473583166298873
0.0370330810546875,0.042308203476340484,60.29381812674714,0.9672510886522304,0,0,0,0,0,0,0,0,0,0,0,0.0,0.14942528735632185,1.0,0.43333333333333335,0.85797119140625,-0.09925414564447785,0.7232789512989551,16.9589795622554,0.19969891338433216,,0.0,0.5612244897959183,0.3781094527363184,0,0,13.1231677578581,13.121616071507388,13.042289427397083,0.07932664415056166,0,0,0.0,0.0,0.0,0,0.0,140.0,8.473583166298873
0.0382843017578125,0.04558233456776266,60.266885550771555,0.9672510886522304,0,0,0,0,0,0,0,0,0,0,0,0.0,0.16091954022988508,1.0,0.4666666666666667,0.85491943359375,-0.10265894245400042,0.7232789512989551,16.9589795622554,0.1997768549791645,,0.0,0.5612244897959183,0.3781094527363184,0,0,13.122862582076849,13.120974609843158,13.042117375214753,0.07885723466859575,0,0,0.0,0.0,0.0,0,0.0,140.0,8.473583166298873
0.0418243408203125,0.04822777681623672,60.23961679497193,0.9672510886522304,0,0,0,0,0,0,0,0,0,0,0,0.0,0.1724137931034483,1.0,0.5,0.85198974609375,-0.10591251252853177,0.7232789512989551,16.9589795622554,0.19985219614981012,,0.0,0.5612244897959183,0.3781094527363184,0,0,13.123015169967474,13.120290690630709,13.041946094310454,0.07834459636037537,0,0,0.0,0.0,0.0,0,0.0,140.0,8.473583166298873
0.0441436767578125,0.05279272979351314,60.212027722986335,0.9672510886522304,0,0,0,0,0,0,0,0,0,1,0,0.0,0.18390804597701152,1.0,0.5333333333333334,0.848663330078125,-0.10901908617354741,0.7232789512989551,16.9589795622554,0.1999249490651837,,0.0,0.5612244897959183,0.3781094527363184,0,0,13.124083285201849,13.119572734518812,13.041775588980943,0.07779714557791842,0,0,0.0,0.0,0.0,0,0.0,140.0,8.473583166298873
0.054290771484375,0.0601736282610246,60.184134153429284,0.9672510886522304,0,0,0,0,0,0,0,0,0,0,0,0.0,0.1954022988505747,1.0,0.5666666666666667,0.845855712890625,-0.1119841626496465,0.7232789512989551,16.9589795622554,0.19999512618564821,,0.0,0.5612244897959183,0.3781094527363184,0,0,13.123320345748724,13.118830189315778,13.041605863530611,0.07722432582514477,0,0,0.0,0.0,0.0,0,0.0,140.0,8.473583166298873
0.0612640380859375,0.06995083559644016,60.15595185833549,0.9672510886522304,0,0,0,0,0,0,0,0,0,0,0,0.0,0.20689655172413793,1.0,0.6,0.842803955078125,-0.11481463838380662,0.7232789512989551,16.9589795622554,0.2000627402572567,,0.0,0.5612244897959183,0.3781094527363184,0,0,13.1243884609831,13.118073282229373,13.041436922271425,0.07663635999785576,0,0,0.0,0.0,0.0,0,0.0,140.0,8.473583166298873
0.0763397216796875,0.08158645880337337,60.127496561689874,0.9672510886522304,0,0,0,0,0,0,0,0,0,0,0,0.0,0.21839080459770116,1.0,0.6333333333333334,0.840667724609375,-0.11751898120609275,0.7232789512989551,16.9589795622554,0.20012780430599833,,0.0,0.5612244897959183,0.3781094527363184,0,0,13.1140124844206,13.11731272363309,13.041268769522873,0.07604395415005558,0,0,0.0,0.0,0.0,0,0.0,140.0,8.473583166298873
0.0858154296875,0.0931769425747605,60.09878393804334,0.9672510886522304,0,0,0,0,0,0,0,0,0,0,0,0.0,0.22988505747126436,1.0,0.6666666666666666,0.83837890625,-0.12010728244510976,0.7232789512989551,16.9589795622554,0.2001903316320509,,0.0,0.5612244897959183,0.3781094527363184,0,0,13.111876253951849,13.116559375837616,13.041101409611908,0.07545796626548189,0,0,0.0,0.0,0.0,0,0.0,140.0,8.473583166298873
0.09820556640625,0.10427976003667136,60.06982961121378,0.9672510886522304,0,0,0,0,0,0,0,0,0,0,0,0.0,0.2413793103448276,1.0,0.7,0.83599853515625,-0.12259113105597197,0.7232789512989551,16.9589795622554,0.20025033580404275,,0.0,0.5612244897959183,0.3781094527363184,0,0,13.110655550826849,13.115823905946373,13.04093484687289,0.07488905911319252,0,0,0.0,0.0,0.0,0,0.0,140.0,8.473583166298873
0.1084136962890625,0.11624147678368481,60.040649153071584,0.9672510886522304,0,0,0,0,0,0,0,0,0,0,0,0.0,0.25287356321839083,1.0,0.7333333333333333,0.83404541015625,-0.12498343015843327,0.7232789512989551,16.9589795622554,0.20030783065332583,,0.0,0.5612244897959183,0.3781094527363184,0,0,13.1121814297331,13.115116444954824,13.040769085647526,0.07434735934694217,0,0,0.0,0.0,0.0,0,0.0,140.0,8.473583166298873
0.123504638671875,0.12736071481695743,60.01125808240936,0.9672510886522304,0,0,0,0,0,0,0,0,0,0,0,0.0,0.2643678160919541,1.0,0.7666666666666667,0.832122802734375,-0.12729822236882135,0.7232789512989551,16.9589795622554,0.2003628302682625,,0.0,0.5612244897959183,0.3781094527363184,0,0,13.111723666061224,13.114446274322521,13.040604130284823,0.07384214407727581,0,0,0.0,0.0,0.0,0,0.0,140.0,8.473583166298873
0.1276397705078125,0.1335328364531423,59.98167186389482,0.9672510886522304,0,0,0,0,0,0,0,0,1,0,0,0.0,0.27586206896551724,1.0,0.8,0.830902099609375,-0.12955040654083544,0.7232789512989551,16.9589795622554,0.20041534898852797,,0.0,0.5612244897959183,0.3781094527363184,0,0,13.112334017623724,13.113821556846469,13.040439985141035,0.07338157174494286,0,0,0.0,0.0,0.0,0,0.0,140.0,8.473583166298873
0.1290130615234375,0.13127118462973286,59.951905907106514,0.9672510886522304,0,0,0,0,0,0,0,0,0,0,0,0.0,0.28735632183908044,1.0,0.8333333333333334,0.82916259765625,-0.131755238875926,0.7232789512989551,16.9589795622554,0.2004654013994315,,0.0,0.5612244897959183,0.3781094527363184,0,0,13.112028841842474,13.113249122830375,13.040276654579609,0.07297246829020884,0,0,0.0,0.0,0.0,0,0.0,140.0,8.473583166298873
0.113128662109375,0.11422044967498432,59.92197556565161,0.9672510886522304,0,0,0,0,0,0,0,0,0,0,0,0.0,0.2988505747126437,1.0,0.8666666666666667,0.82720947265625,-0.13392772275440362,0.7232789512989551,16.9589795622554,0.20051300232625754,,0.0,0.5612244897959183,0.3781094527363184,0,0,13.111418490279974,13.112734317117434,13.040114142971143,0.0726201741856691,0,0,0.0,0.0,0.0,0,0.0,140.0,8.473583166298873
0.0753631591796875,0.07529289984689035,59.891896136364956,0.9672510886522304,0,0,0,0,0,0,0,0,0,0,0,0.0,0.3103448275862069,1.0,0.9,0.8258056640625,-0.13608209856715633,0.7232789512989551,16.9589795622554,0.20055816682862984,,0.0,0.5612244897959183,0.3781094527363184,0,0,13.112028841842474,13.112280908291522,13.039952454693346,0.07232845363749268,0,0,0.0,0.0,0.0,0,0.0,140.0,8.473583166298873
0.0111083984375,0.01636534185194445,59.86168285858883,0.9672510886522304,0,0,0,0,0,0,0,0,0,0,0,0.0,0.32183908045977017,1.0,0.9333333333333333,0.824127197265625,-0.13823142850521666,0.7232789512989551,16.9589795622554,0.20060091019490012,,0.0,0.5612244897959183,0.3781094527363184,0,0,13.1109607266081,13.111891058209247,13.039791594130998,0.07209946411749926,0,0,0.0,0.0,0.0,0,0.0,140.0,8.473583166298873
-0.05828857421875,-0.049260399349881814,59.83135091353265,0.9672510886522304,0,0,0,0,0,0,0,0,0,0,0,0.0,0.3333333333333333,1.0,0.9666666666666667,0.82171630859375,-0.14038719902641386,0.7232789512989551,16.9589795622554,0.20064124793656357,,0.0,0.5612244897959183,0.3781094527363184,0,0,13.111265902389349,13.11156534771707,13.039631565675933,0.07193378208032092,0,0,0.0,0.0,0.0,0,0.0,140.0,8.473583166298873
-0.117706298828125,-0.10593645996977488,59.80091542371167,0.9672510886522304,0,0,0,0,0,0,0,0,0,0,0,0.0,0.3448275862068966,1.0,1.0,0.820068359375,-0.14255907001706125,0.7232789512989551,16.9589795622554,0.20067919578270357,,0.0,0.5612244897959183,0.3781094527363184,0,0,13.111418490279974,13.11130285269112,13.03947237372701,0.0718304790032272,0,0,0.0,0.0,0.0,0,0.0,140.0,8.473583166298873
-0.1561431884765625,-0.14546889459921947,59.77039145246441,0.9672510886522304,0,0,0,0,0,0,0,0,0,0,1,0.0,0.3563218390804598,0.0,0.0,0.818145751953125,-0.14475478270416334,0.7232789512989551,16.9589795622554,0.20071476967446744,,0.0,0.5612244897959183,0.3781094527363184,0,0,13.111418490279974,13.111101263266479,13.0393140226901,0.07178724061542825,0,0,0.0,0.0,0.0,0,0.0,140.0,8.473583166298873
-0.177947998046875,-0.16690023840110702,59.73979400354741,0.9672510886522304,0,0,0,0,0,0,0,0,0,0,0,0.0,0.36781609195402304,0.0,0.014084507042253521,0.815887451171875,-0.14698005791554442,0.7232789512989551,16.9589795622554,0.20074798575957534,,0.0,0.5612244897959183,0.3781094527363184,0,0,13.1109607266081,13.110957038240858,13.03915651697807,0.07180052130176846,0,0,0.0,0.0,0.0,0,0.0,140.0,8.473583166298873
-0.1815948486328125,-0.17405665670487921,59.70913802080715,0.9672510886522304,0,0,0,0,0,0,0,0,0,0,0,0.0,0.3793103448275862,0.0,0.028169014084507043,0.813751220703125,-0.14923851216512035,0.7232789512989551,16.9589795622554,0.200778860386864,,0.0,0.5612244897959183,0.3781094527363184,0,0,13.1121814297331,13.1108655861585,13.038999861010787,0.07186572518662512,0,0,0.0,0.0,0.0,0,0.0,140.0,8.473583166298873
-0.18109130859375,-0.17155395690823533,59.67843838792794,0.9672510886522304,0,0,0,0,0,0,0,0,0,0,0,0.0,0.3908045977011494,0.0,0.042253521126760556,0.8114013671875,-0.15153169882648315,0.7232789512989551,16.9589795622554,0.20080741010086783,,0.0,0.5612244897959183,0.3781094527363184,0,0,13.111113314498724,13.110821464520331,13.038844059215114,0.07197740534406535,0,0,0.0,0.0,0.0,0,0.0,140.0,8.473583166298873
-0.1684112548828125,-0.16147498709964184,59.64770992825518,0.9672510886522304,0,0,0,0,0,0,0,0,0,0,0,0.0,0.4022988505747126,0.0,0.056338028169014086,0.809112548828125,-0.1538592403433836,0.7232789512989551,16.9589795622554,0.20083365163643901,,0.0,0.5612244897959183,0.3781094527363184,0,0,13.112028841842474,13.110818588905614,13.038689116024916,0.07212947291948224,0,0,0.0,0.0,0.0,0,0.0,140.0,8.473583166298873
-0.1539306640625,-0.14671512550337434,59.616967404693185,0.9672510886522304,0,0,0,0,0,0,0,0,0,0,0,0.0,0.41379310344827586,0.0,0.07042253521126761,0.806732177734375,-0.15621899685122329,0.7232789512989551,16.9589795622554,0.20085760191340826,,0.0,0.5612244897959183,0.3781094527363184,0,0,13.1109607266081,13.110850444488882,13.038535035881068,0.0723154086465357,0,0,0.0,0.0,0.0,0,0.0,140.0,8.473583166298873
-0.136505126953125,-0.1310433155812319,59.586225519676816,0.9672510886522304,0,0,0,0,0,0,0,0,0,0,0,0.0,0.42528735632183906,0.0,0.08450704225352111,0.803955078125,-0.15860728254454973,0.7232789512989551,16.9589795622554,0.20087927803128847,,0.0,0.5612244897959183,0.3781094527363184,0,0,13.111265902389349,13.110910293413209,13.038381823231475,0.07252847022039281,0,0,0.0,0.0,0.0,0,0.0,140.0,8.473583166298873
-0.1231231689453125,-0.11654621881255331,59.55549891521607,0.9672510886522304,0,0,0,0,0,0,0,0,0,0,0,0.0,0.4367816091954023,0.0,0.09859154929577467,0.801788330078125,-0.1610191590312416,0.7232789512989551,16.9589795622554,0.20089869726402282,,0.0,0.5612244897959183,0.3781094527363184,0,0,13.1109607266081,13.110991372568108,13.038229482531085,0.07276189007561612,0,0,0.0,0.0,0.0,0,0.0,140.0,8.473583166298873
-0.1092987060546875,-0.10411649589485619,59.52480217301284,0.9672510886522304,0,0,0,0,0,0,0,0,0,0,0,0.0,0.4482758620689655,0.0,0.11267605633802817,0.799102783203125,-0.16344875455728164,0.7232789512989551,16.9589795622554,0.2009158770547793,,0.0,0.5612244897959183,0.3781094527363184,0,0,13.111265902389349,13.111087077304111,13.038078018241915,0.07300905910071742,0,0,0.0,0.0,0.0,0,0.0,140.0,8.473583166298873
-0.1005859375,-0.0925105764726411,59.494149814649205,0.9672510886522304,0,0,0,0,0,0,0,0,0,0,0,0.0,0.45977011494252873,0.0,0.1267605633802817,0.796783447265625,-0.16588953663581343,0.7232789512989551,16.9589795622554,0.2009308350107933,,0.0,0.5612244897959183,0.3781094527363184,0,0,13.1121814297331,13.111191127353514,13.037927434833072,0.0732636925588915,0,0,0.0,0.0,0.0,0,0.0,140.0,8.473583166298873
-0.08538818359375,-0.07982494693548449,59.46355630184628,0.9672510886522304,0,0,0,0,0,0,0,0,0,0,0,0.0,0.4712643678160919,0.0,0.14084507042253522,0.79443359375,-0.1683345374601013,0.7232789512989551,16.9589795622554,0.20094358889825983,,0.0,0.5612244897959183,0.3781094527363184,0,0,13.111723666061224,13.111297711738317,13.037777736780775,0.0735199749959231,0,0,0.0,0.0,0.0,0,0.0,140.0,8.473583166298873
-0.07373046875,-0.06768468797496832,59.43303603679306,0.9672510886522304,0,0,0,0,0,0,0,0,0,0,0,0.0,0.4827586206896552,0.0,0.15492957746478875,0.792022705078125,-0.17077652557913675,0.7232789512989551,16.9589795622554,0.20095415663727703,,0.0,0.5612244897959183,0.3781094527363184,0,0,13.112944369186224,13.111401609915118,13.037628928568374,0.07377268138505261,0,0,0.0,0.0,0.0,0,0.0,140.0,8.473583166298873
-0.06365966796875,-0.057524144713028066,59.40260336254426,0.9672510886522304,0,0,0,0,0,0,0,0,0,0,0,0.0,0.49425287356321845,0.0,0.16901408450704222,0.789642333984375,-0.17320813165776877,0.7232789512989551,16.9589795622554,0.2009625562968429,,0.0,0.5612244897959183,0.3781094527363184,0,0,13.111876253951849,13.111498287063029,13.037481014686382,0.07401727241487871,0,0,0.0,0.0,0.0,0,0.0,140.0,8.473583166298873
-0.0547943115234375,-0.04782890054436595,59.37227256348666,0.9672510886522304,0,0,0,0,0,0,0,0,0,0,0,0.0,0.5057471264367817,0.0,0.18309859154929578,0.78729248046875,-0.17562197530628745,0.7232789512989551,16.9589795622554,0.20096880608990636,,0.0,0.5612244897959183,0.3781094527363184,0,0,13.111876253951849,13.1115839623884,13.0373339996325,0.07424996279405455,0,0,0.0,0.0,0.0,0,0.0,140.0,8.473583166298873
-0.043792724609375,-0.03777499829650021,59.34205786587301,0.9672510886522304,0,0,0,0,0,0,0,0,0,0,0,0.0,0.5172413793103449,0.0,0.19718309859154934,0.78466796875,-0.17801082190902337,0.7232789512989551,16.9589795622554,0.2009729243684745,,0.0,0.5612244897959183,0.3781094527363184,0,0,13.111723666061224,13.111655650529986,13.03718788791164,0.07446776265641662,0,0,0.0,0.0,0.0,0,0.0,140.0,8.473583166298873
-0.034423828125,-0.0289188510903055,59.311973438422946,0.9672510886522304,0,0,0,0,0,0,0,0,0,0,0,0.0,0.5287356321839082,0.0,0.2112676056338028,0.7825927734375,-0.18036778236562648,0.7232789512989551,16.9589795622554,0.2009749296187774,,0.0,0.5612244897959183,0.3781094527363184,0,0,13.111265902389349,13.111711177362082,13.037042684035947,0.07466849336412296,0,0,0.0,0.0,0.0,0,0.0,140.0,8.473583166298873
-0.028717041015625,-0.023602698858105297,59.28203339298995,0.9672510886522304,0,0,0,0,0,0,0,0,0,0,0,0.0,0.5402298850574713,0.0,0.22535211267605634,0.7806396484375,-0.1826864795485346,0.7232789512989551,16.9589795622554,0.20097484045649172,,0.0,0.5612244897959183,0.3781094527363184,0,0,13.112639193404974,13.111749172439731,13.036898392524817,0.07485077995282359,0,0,0.0,0.0,0.0,0,0.0,140.0,8.473583166298873
-0.0282135009765625,-0.020640185714645876,59.25225178529392,0.9672510886522304,0,0,0,0,0,0,0,0,0,0,0,0.0,0.5517241379310345,0.0,0.23943661971830987,0.778106689453125,-0.18496109130302274,0.7232789512989551,16.9589795622554,0.20097267562202492,,0.0,0.5612244897959183,0.3781094527363184,0,0,13.111723666061224,13.111769040888827,13.036755017904918,0.07501402302173807,0,0,0.0,0.0,0.0,0,0.0,140.0,8.473583166298873
-0.0230560302734375,-0.017845504225878665,59.22264261571854,0.9672510886522304,0,0,0,0,0,0,0,0,0,0,0,0.0,0.5632183908045978,0.0,0.2535211267605634,0.77618408203125,-0.18718636629590912,0.7232789512989551,16.9589795622554,0.20096845397586083,,0.0,0.5612244897959183,0.3781094527363184,0,0,13.110045199264349,13.111770917814038,13.036612564710211,0.07515835314158079,0,0,0.0,0.0,0.0,0,0.0,140.0,8.473583166298873
-0.022674560546875,-0.01651947937827829,59.193219830172715,0.9672510886522304,0,0,0,0,0,0,0,0,0,0,0,0.0,0.5747126436781609,0.0,0.26760563380281693,0.774444580078125,-0.1893576765560724,0.7232789512989551,16.9589795622554,0.20096219449396843,,0.0,0.5612244897959183,0.3781094527363184,0,0,13.1115710781706,13.111755608424811,13.03647103748196,0.07528457098053506,0,0,0.0,0.0,0.0,0,0.0,140.0,8.473583166298873
-0.0232696533203125,-0.01653242379164651,59.163997321015586,0.9672510886522304,0,0,0,0,0,0,0,0,0,0,0,0.0,0.5862068965517241,0.0,0.28169014084507044,0.772430419921875,-0.19147098303313517,0.7232789512989551,16.9589795622554,0.20095391626327472,,0.0,0.5612244897959183,0.3781094527363184,0,0,13.1121814297331,13.111724517016677,13.036330440768745,0.07539407628554376,0,0,0.0,0.0,0.0,0,0.0,140.0,8.473583166298873
-0.022491455078125,-0.014878367446856743,59.13498892804432,0.9672510886522304,0,0,0,0,0,0,0,0,0,0,0,0.0,0.5977011494252874,0.0,0.29577464788732394,0.770050048828125,-0.19352275169025424,0.7232789512989551,16.9589795622554,0.20094363847720298,,0.0,0.5612244897959183,0.3781094527363184,0,0,13.1115710781706,13.111679567541929,13.036190779126482,0.07548878845298651,0,0,0.0,0.0,0.0,0,0.0,140.0,8.473583166298873
-0.016815185546875,-0.011988381655061204,59.10620843954422,0.9672510886522304,0,0,0,0,0,0,0,0,0,0,0,0.0,0.6091954022988506,0.0,0.3098591549295775,0.76837158203125,-0.19551001648909846,0.7232789512989551,16.9589795622554,0.20093138043127762,,0.0,0.5612244897959183,0.3781094527363184,0,0,13.112028841842474,13.111623117866861,13.036052057118432,0.07557106078589126,0,0,0.0,0.0,0.0,0,0.0,140.0,8.473583166298873
-0.017364501953125,-0.01024666181909122,59.077669593400394,0.9672510886522304,0,0,0,0,0,0,0,0,0,0,0,0.0,0.6206896551724138,0.0,0.32394366197183105,0.76702880859375,-0.19743051132835615,0.7232789512989551,16.9589795622554,0.20091716151879677,,0.0,0.5612244897959183,0.3781094527363184,0,0,13.111113314498724,13.111557869310362,13.035914279315211,0.07564359003254074,0,0,0.0,0.0,0.0,0,0.0,140.0,8.473583166298873
-0.01495361328125,-0.009809619231130683,59.049386078270594,0.9672510886522304,0,0,0,0,0,0,0,0,0,0,0,0.0,0.632183908045977,0.0,0.33802816901408445,0.765167236328125,-0.1992826304363026,0.7232789512989551,16.9589795622554,0.20090100122657345,,0.0,0.5612244897959183,0.3781094527363184,0,0,13.111113314498724,13.111486772900605,13.03577745029479,0.07570932264313182,0,0,0.0,0.0,0.0,0,0.0,140.0,8.473583166298873
